0.0,1.0,2.25,3.3,4.3,5.6,6.9
52.74586443,42.34138184,46.09869622,37.1014149,41.40011632,40.43419006,34.64246774
48.43908806,50.54320498,42.82065789,31.81902643,43.82287246,44.41329822,38.97089288
48.71834314,54.14596847,47.94687085,34.49212901,43.94608102,60.95029707,48.26013281
46.38088692,47.39304456,44.51478673,46.92145119,38.28977862,47.66363857,46.24868763
48.58253505,229.9861419,711.9126246,1046.314176,1332.55138,1302.905328,1430.836568
46.06573363,231.706967,685.7156038,1073.779105,1239.400362,1397.235584,1309.788187
44.52335882,78.91588841,107.8517818,135.0231192,136.476627,153.6997946,137.937438
48.06078927,69.51572634,97.52507525,127.9626169,146.6800493,145.455893,143.0182051
51.7419969,414.6151513,1407.38086,2051.510694,2660.320255,2458.849802,3115.414708
56.14967814,458.9630929,1370.841394,2010.346081,2337.357328,2911.480115,3117.602608
45.80992528,430.9112753,1528.924771,2047.759676,2647.834669,2635.069335,2776.287722
54.89187164,424.8773083,1630.220709,1532.634088,2248.543959,2826.862279,2921.31528
18.05628022,19.29687969,14.33265221,15.17558187,14.28074858,11.1579464,15.2630256
17.47440482,15.54672926,14.51715878,12.61105602,13.69536899,11.80956894,15.42864015
24.47013686,22.67656341,19.97460866,14.42478628,12.61598655,15.97278514,15.36029049
17.1218284,19.70427221,14.69074401,14.74685078,13.38263971,13.95545196,14.07211799
18.29273575,48.15874174,141.8284591,186.7470616,266.5173648,266.3161376,293.53111
19.37825917,43.22278937,151.7127433,208.3185631,242.6055804,282.1844612,271.3288418
17.10911122,19.3936914,33.08613372,39.1886164,48.54245087,31.98535057,37.59946205
15.02242535,23.8541052,31.0835313,35.17331842,39.01748947,35.55531385,32.90282662
18.52460074,98.06160371,294.3109186,333.5126888,422.3252428,415.3517043,490.9640686
17.31269775,99.29544258,273.4946198,363.7589396,366.9479757,408.4469018,457.5501874
18.84599291,114.6874861,268.730651,372.0775247,506.8090144,538.5627666,502.1471444
19.0826906,119.8341909,289.307787,378.7039514,484.4638354,568.1157113,521.707927
7.659048054,6.636811745,4.853432783,5.978267101,4.488156002,6.082696604,6.798440466
5.064251202,6.884655049,3.873287483,4.847971221,5.847339781,6.547257558,7.528044726
4.97530893,8.115610203,4.530188146,2.628261542,6.042806455,5.201980457,4.880954743
7.905072802,7.415046311,3.48383601,4.763442274,4.806558463,4.620847684,4.837912205
6.814496087,5.959155223,6.4612413,3.70700004,4.471203928,5.709495005,4.862640923
5.545192106,4.767700426,4.755538858,4.402255909,3.710267361,3.323776208,3.755849873
5.950896232,4.280907467,1.376669224,3.634621413,5.718151238,6.121070728,3.920647493
5.211973184,6.305358156,4.08425069,4.823857794,5.087845991,5.173293982,3.55918666
5.568409096,6.754948567,5.022849077,5.955988998,4.531364004,7.200828961,6.695219332
6.041666805,4.507166823,5.515151166,6.533608557,5.696604017,6.584374918,4.284312984
5.368961395,6.333495787,11.564199,9.943650491,9.8678776,12.97401344,7.674991553
5.919560507,6.907431934,12.4494201,9.961844314,10.76409964,11.25275976,10.47109306
6.082154251,6.15456497,5.072392575,4.37148563,3.953948248,5.360264328,5.846742917
5.876513883,5.595981879,6.548975907,3.801865528,4.706673254,3.777817105,6.123873194
6.088289721,7.011371574,6.324619493,3.747100307,3.849876151,2.682496361,4.693909225
8.368530855,8.513019943,6.123907262,4.694410409,4.800690404,4.981664853,3.991681047
7.45021063,10.57283441,19.14327077,24.8385206,33.79686126,26.87992566,25.22923934
8.176621992,12.47410564,15.05991304,22.67752664,28.35099755,27.71833668,22.97633847
3.47992119,7.253438945,3.910619612,5.49226766,5.05491478,4.699081218,6.238808773
8.178459385,5.996962372,5.325399622,6.197187466,6.058958758,5.249683313,4.346108197
7.527007177,69.04114792,202.9174183,270.2706867,350.4281428,395.9691492,435.8159797
7.653115518,66.76535318,213.0459531,293.6063671,317.9506557,455.4004705,410.6583604
7.434992839,191.9465925,676.2591092,787.8630451,999.0498417,878.5956223,1348.197684
7.252066548,183.2980285,589.9059301,994.5217602,1257.681095,1091.37238,1283.104662
5.909582629,8.824655256,6.422631216,5.509532291,3.7474011,7.134249616,6.496400654
4.78630931,6.164222263,4.391074856,5.837909387,7.174256866,6.206938054,6.758293195
6.440313364,7.132222291,5.356086819,5.258412156,3.652108069,3.30123227,5.481527262
4.802832128,5.867162513,6.118911329,5.215466022,5.700419455,4.963505845,6.61052363
6.111162247,56.02981351,156.571823,221.4174706,316.2257612,258.9214381,333.2937142
6.992972652,53.46859494,169.826349,248.5225203,322.6880094,198.455118,284.4025081
6.90044388,7.47383966,11.77364245,12.10865234,14.01023573,14.01604034,15.39581874
8.12983961,9.525916829,11.36884277,13.51587583,14.58000091,13.79681498,17.34954881
6.627597015,226.7795519,591.7689721,999.9303332,788.093184,1693.714581,1879.413908
6.28449209,194.0798038,713.755547,1367.330103,760.7777987,1726.869034,1946.600267
7.645219659,372.0461141,1200.946413,1798.599292,1730.173884,2792.08803,2768.266172
5.018700046,373.9142364,1451.576396,1792.679916,2131.726287,2339.409793,2659.791431
2.102399974,10.93066537,3.230803469,2.227640582,4.402775602,3.421319926,1.872618843
7.036131603,5.516512726,4.768827448,2.95708033,10.41394181,6.878978239,2.557453037
9.469396847,11.69870874,6.551080258,8.212317233,11.81483213,0.29533509,8.359074812
3.71240761,3.812676252,1.620709804,1.528900334,2.97112956,4.194700256,3.109610624
2.061589981,6.841094337,5.181680508,3.167348913,3.193610793,16.75826517,23.35407704
7.124686954,8.682974035,9.377644832,3.204316783,14.6979596,10.14881039,53.59714858
9.258017779,7.368403423,3.17477472,13.05386693,0.144791534,4.444312727,2.126802857
6.295262995,9.915549614,0.404082626,8.284035142,1.88336213,5.393515804,3.23086138
3.811055708,36.17834969,24.48907214,78.59999595,50.19188251,23.80095043,13.99681286
8.243728023,3.841827493,25.45529042,9.828625129,43.0483778,11.05359842,131.1055665
2.168341913,11.51113581,3.58821456,4.424857557,7.91922253,3.417521712,2.047459522
7.562579444,4.74522743,0.90081032,32.24146781,38.67441744,5.340924128,0.0
3.554951772,3.577376003,2.314515258,2.031655408,2.490432779,3.86055745,1.862195486
2.460094781,3.050006213,2.824715484,2.464873524,2.535813572,0.787251489,1.790203049
2.155966667,3.008561241,2.35428125,2.430517245,4.254523775,2.387101107,2.141858302
3.283296625,4.237932576,3.904061629,1.570462347,3.179513572,3.050850492,3.335361605
3.534689409,11.8194216,48.2421789,51.45591527,60.61266222,70.97611218,65.7359512
4.292096276,10.7547618,36.41025726,52.31325581,67.73521707,59.31823023,70.73425208
5.306600631,3.230465868,1.302685584,5.676349581,3.91936653,5.071229604,2.893828588
3.946101901,3.778819659,4.571880669,3.747649572,2.505202179,6.101808794,2.402031412
5.415466221,62.12134725,219.3209249,291.8288359,386.5210471,336.5964631,351.2962801
6.1453104,71.23806294,200.7033724,296.9130164,295.8343327,378.3844336,345.6807543
4.18141669,108.860262,267.071909,365.1347646,423.4513747,423.1140708,548.5330548
3.667319235,94.75554356,264.3296769,437.8722798,525.0139315,378.670372,562.5980345
2.9383923,3.361265483,2.278813636,1.122969737,2.991808401,2.278003101,1.138697303
1.007067873,1.266821381,2.120717724,2.120767932,2.281358539,3.026813738,1.388658152
3.143985728,2.923516117,2.4119181,2.358799177,1.534524488,1.631884839,1.834960332
3.6833713,1.12010145,1.484662183,2.883777485,1.706383964,0.909070772,1.796964501
2.911728946,4.085970695,2.417935904,2.864311495,1.140903315,2.042635264,1.651502467
1.862228882,1.848574185,2.337033671,2.169301574,2.409476788,1.662518378,0.0
2.992115973,2.161959896,1.721139259,1.972240993,1.196853164,2.394504465,0.972643765
3.667153068,2.392631891,2.735904994,2.523181623,2.505614902,2.03084833,2.044338545
3.229374364,1.850140547,2.428832814,3.252363923,3.069383712,1.844923327,2.663788625
2.955244708,3.104417178,5.25683915,1.806460609,4.403183776,1.422746148,2.552147338
2.228962654,4.000603387,3.255228574,4.263979839,6.061478596,4.495700668,6.780059378
1.544838325,4.970668973,5.507134124,3.482621019,3.366267099,3.387040056,6.009892187
51.40333191,46.97229221,52.4048605,34.41024064,47.97021989,40.55503417,33.50638445
47.23781555,53.04806885,45.78570396,39.97435303,43.07924942,50.59564688,46.27462968
48.85603757,47.20192609,44.25341438,36.80742525,45.58521066,46.43103436,43.03305417
56.45856929,46.87595545,54.90404794,42.42885823,31.57609804,53.16505365,55.80772506
45.12238141,196.972554,691.6708304,1104.833234,1271.443784,1348.460959,1462.384408
55.32866517,273.7540086,720.878731,988.4515238,1136.642219,1405.102471,1355.429448
48.66225401,76.04546381,97.25994476,118.2797592,144.0383781,149.3534303,134.9930334
61.18663617,75.10247371,112.3008275,140.470146,162.9902864,148.652201,172.715846
49.14444802,434.0753897,1122.858979,1760.875797,2146.076125,2932.861366,3207.685711
50.50543759,452.7874256,1139.798549,1789.438073,2705.301467,2678.054126,3686.752675
57.13129632,498.8838642,1566.527914,2154.950674,2474.213057,2886.580634,3336.369484
52.53790465,499.6766847,1401.792626,1840.717649,2759.43849,1618.351881,2988.060471
18.11388171,20.58389409,15.18766524,15.57289252,14.15630602,11.49664902,9.577959675
13.82893403,19.13371969,16.48998294,10.68751656,15.94648262,10.09477438,11.29558976
17.35529427,17.46598053,16.08374072,14.74787821,13.99741961,13.31926429,10.88711964
20.06044549,18.88418768,17.56284494,15.94191219,15.43675922,14.96215956,11.10906216
25.12372625,41.35458825,131.4916072,230.0009576,247.7124712,276.3227802,259.8833724
13.90498663,44.79715843,165.567873,199.0387773,242.8666786,269.4126433,286.7735281
16.164073,22.40378947,34.59252454,34.56556122,32.37716993,34.85047539,29.04051889
16.42790106,22.16880836,32.80156914,35.05585588,38.78937915,33.27319371,34.00502444
23.41084241,96.15109969,206.9893771,346.8799277,410.5365978,448.5879828,508.0641299
14.95959971,88.3805108,306.0836261,339.3935024,404.2951667,385.5171416,511.8329544
17.70474276,122.6765326,291.2221421,451.1008919,453.3263005,515.3432027,532.819187
18.21190933,114.9736445,277.326976,375.3078846,514.7548825,651.1979626,502.4946989
7.170987408,6.325246223,3.591426268,4.09187967,4.749470946,2.946554195,3.856926626
5.59555451,7.067500889,3.698244479,5.41855886,6.942033809,5.323656127,4.055906505
5.528098743,5.279159759,3.104306214,3.998876074,4.267960032,4.960983621,5.617468364
5.116527902,7.145419072,6.155523703,2.983547826,6.521252967,3.291986918,6.497704116
7.461251263,4.561346382,6.61705963,3.629183735,3.618858943,4.903951719,3.259503586
5.889207194,5.487588293,5.934914019,6.46959247,4.110720885,4.089994576,2.722282001
6.153711616,5.104033051,2.21559203,3.432933501,5.005088378,5.641353387,4.022194768
5.596412817,5.287516603,3.74823976,3.51970065,4.565297634,3.567952714,4.06736713
7.061733051,5.408112894,4.339887551,4.047652489,5.65629406,4.550791133,7.79648687
5.517344353,7.437806839,5.964102922,6.906659924,4.629975965,4.983242854,4.314659102
6.141859568,8.038192604,9.555648445,10.87576925,12.26286631,10.77929475,11.66064081
6.147566824,7.264478729,8.79113808,11.98728321,10.19207184,11.92012592,12.73214396
6.43415366,6.647066947,4.411746808,3.593029242,7.555640622,6.234915244,5.457878253
9.720167173,7.491700455,5.377070814,5.547487245,6.28719283,7.961111479,4.676585746
6.645555992,8.262784203,6.169428992,4.501941472,6.874006122,5.478343212,2.813496321
5.595304025,5.987330447,6.270001752,6.416005476,4.412173064,6.158394794,5.142891522
6.26838954,11.92142658,18.62931944,18.37213221,23.83892571,28.35433728,19.59782427
5.38923351,12.58829315,24.25607575,22.78852236,22.13704613,30.43247726,22.54872812
6.208417601,4.904020625,7.600302938,6.007597596,4.976956009,5.45921247,5.663911355
7.238176483,7.516805469,4.21634085,5.136229491,2.811924166,6.006621936,6.057508889
8.119610121,68.64981574,154.0445084,289.462455,417.8204237,360.8714312,338.5055704
6.233525666,53.7153234,202.5977431,284.3147167,309.1578033,483.0540046,456.6387423
7.999382056,203.4929877,706.5740268,936.2955809,1080.529652,1184.952577,1200.867673
7.073303534,161.6131215,707.1655916,1052.68848,1034.116789,1076.96869,1283.466329
5.624945443,7.131508982,4.768299914,5.674286565,5.662720499,6.902088301,7.176505083
7.152167576,4.295725639,5.14827318,7.186843955,5.729046896,6.399048232,3.209020014
5.043358908,8.239862627,3.160224718,6.540526755,5.582315869,5.420949673,3.45401932
4.950003332,6.784391595,5.044583583,5.628537239,3.83918542,5.125028453,4.687426795
7.16687176,51.61353543,192.2398341,225.4761773,295.4691831,195.4240102,323.4281344
6.704873506,52.2774259,152.6740313,248.4785004,286.4427664,192.9475288,271.4455241
6.550165447,5.781352237,8.406646767,13.92227311,14.37704611,17.21332152,11.11213135
4.560389799,8.235213985,10.21264625,13.97800947,15.61806122,11.85930545,12.04531081
6.00180398,238.5764241,722.2591791,1209.527058,580.3436649,1786.954966,2111.695382
7.092982824,219.9113697,797.5274412,1133.010259,744.0265458,1846.39703,2075.420509
6.303249729,370.8422404,1266.420078,1813.867268,2630.820778,2980.684934,2962.68827
8.67593355,352.5407019,1339.368402,2000.214323,2087.672692,2668.20173,2799.357696
3.749318487,4.659392539,9.399701439,6.479867029,4.258739834,5.872636036,2.251589019
5.92468404,9.91111655,2.722301596,8.566464424,39.06733491,0.130028508,2.814240373
10.7033843,5.193883706,2.795875367,9.071265043,5.717205833,2.315961457,4.731569169
1.95273287,8.221181404,9.265756518,2.923606523,6.706091988,2.554964652,2.804310536
0.0,8.15322339,0.512240671,1.886568536,15.14147123,32.84084706,55.66524305
5.474440412,5.167258554,15.75494695,2.399200288,7.533609574,51.09839789,34.5224691
6.944755012,5.631026545,7.86103977,6.030016128,1.143124511,6.331176782,5.948229632
0.962686302,5.721569464,2.307715893,2.110441215,0.265007084,1.009482705,1.386045651
2.861254524,11.39453121,25.39327995,27.09980363,29.79219696,8.092347495,19.70134469
5.67445394,14.49587295,42.45384212,94.18816875,62.90262842,31.42830809,23.03069053
4.355273046,9.419082091,2.062985541,0.0,7.91922253,0.697178594,0.0
4.350250318,6.101735745,6.018481108,4.515446325,1.959287618,0.03928302,0.316341986
4.835763239,2.417903603,1.54641469,1.578247108,1.806800876,2.841273539,1.098434316
2.504744457,1.731942265,1.364460697,3.865687294,2.12955048,2.461182153,2.768200347
2.935724374,5.248106946,3.531487504,4.31368449,3.32096492,4.019204147,2.532187281
3.25086354,1.932129165,2.333267512,2.430587311,1.961177602,1.795321509,1.695295766
3.406517295,10.45346288,52.58638512,59.43242577,65.42711732,89.36976244,70.71770724
5.045968484,11.98144315,45.47130207,64.83150369,68.16767594,70.23971558,79.70190157
3.52500339,2.192802947,4.008457276,4.459644049,4.266784342,6.62301422,4.074158896
3.848357188,2.892498419,3.707722169,3.5229365,4.250297093,4.817723636,4.715894351
3.788108939,48.72319989,237.9826646,294.1002684,319.8790946,383.7465017,348.4099156
2.444727566,76.56194049,223.1118779,306.0262004,365.6593421,371.9691212,373.008736
3.406661748,100.5728068,307.197867,388.1605589,499.9922786,361.8674702,576.9740822
2.586498708,110.868312,293.4397518,395.8517025,459.7067505,311.545812,595.2091199
3.67833944,2.935207165,1.601554392,1.000579912,2.174157347,1.915112286,3.263772396
2.740683802,3.172053151,3.050168656,1.239153303,1.373967811,1.795337729,3.844569798
2.51640637,1.812465666,1.147448395,3.825936531,1.364080621,2.178144643,0.725068858
4.192276098,1.317845708,0.918902978,0.834985287,2.496919522,2.636268199,0.77678081
2.93153439,2.734819217,1.754277645,3.058161369,1.599086727,1.122234311,1.645831862
1.04543849,2.47933768,3.286467628,1.72896634,2.9464921,1.969002533,2.717463595
2.962364436,1.273782967,1.374352884,2.741793169,0.513225916,3.003673533,1.82550106
2.328052034,4.006409131,2.193801246,2.552688483,1.082983191,1.758902262,1.197577876
2.305286762,3.050240814,3.84120107,3.591812558,4.913702637,5.062150432,2.938554418
2.382239361,3.016870787,1.469418249,4.801482019,4.905172716,2.292821466,2.571187382
4.249403725,4.317382482,3.780835844,6.408417495,6.661862348,6.957122418,3.809315586
2.93940423,2.858986886,4.083659589,1.464638374,4.305674215,6.553911005,9.253576859
52.01512527,54.58586431,45.95389451,35.25225118,40.3750229,38.31082431,41.10063878
54.51804497,45.50502003,41.64114063,40.6176505,45.94973444,36.13848418,34.50791813
55.277086,51.89482376,40.2815375,34.94618735,47.42902553,53.15037852,46.59829494
49.09188915,46.62257254,46.54125049,45.68550906,50.47746456,56.54504099,38.1413743
40.76149133,226.5806327,743.0149454,1190.970061,1197.669852,1322.15422,1430.803204
49.17753481,241.2767687,681.7892172,987.0514336,1221.274502,1441.029831,1218.786572
49.41421811,72.43452884,124.4498188,123.7923396,133.9599255,163.1708475,134.5663474
46.16349286,55.06141736,97.40537009,136.9728973,152.5981591,160.3074803,147.6978716
51.17773023,426.8722666,1076.307921,1896.478301,2476.302308,3064.712052,2981.793561
51.10290106,346.9609431,1509.514637,1763.233072,2295.958771,2984.858298,3523.735705
51.60412712,511.0084153,1508.253794,2727.525228,2556.630865,2913.127501,2921.392266
54.28849583,539.8713627,1645.774548,2135.707929,2609.676194,2832.721771,2274.495692
18.76510062,16.44718742,15.98702178,10.75039417,12.00054648,17.48017353,10.19953363
20.3547789,17.35373888,13.13749695,14.11855395,13.2124009,12.33813658,15.07200941
18.96014511,16.44965717,15.52599316,16.89055062,12.649487,16.30383259,11.02955098
14.39779765,24.90961455,13.69090413,19.77967899,17.24104397,11.68811652,14.16713018
17.21906511,43.20220137,145.6775663,184.6628681,261.2516592,277.0581429,287.156876
17.57119011,41.95189157,140.3556974,215.7333463,238.7886224,266.5883592,257.9071642
17.32942927,20.81657657,28.27720342,30.01565142,41.16876782,37.29805611,32.59625256
20.05864831,19.36000853,27.86357581,35.20619376,35.37279436,43.82881261,36.97192597
15.82066289,103.2828929,285.3241815,324.3947481,331.4225991,464.5745275,465.046707
17.87026373,94.01895037,274.8291237,362.9692347,394.3888578,406.1427886,438.6543651
20.72390922,107.7407501,338.3338451,341.0047795,492.0501,631.167322,654.9264584
19.45242324,111.3409859,302.2796297,412.7219333,401.3222055,633.8276823,553.3926207
5.814479193,4.902125922,7.298777659,5.299460387,6.537076448,8.164885488,4.558518157
6.189538709,4.195605301,4.750624899,4.049010465,5.558711793,7.373400123,4.659115562
6.436107474,6.983921142,4.226783069,5.053482801,4.933660203,5.283409072,5.499416724
5.08691212,7.828676383,4.372080466,3.533056846,3.486867133,3.704783613,4.915922457
6.07363536,6.107498529,2.977423312,3.692320684,2.946223745,3.985170249,4.660037471
5.195846095,5.823853539,4.364714071,5.852941549,3.93048048,4.794270795,3.526390229
5.836823228,6.782386727,2.913115621,4.223225838,5.162102215,4.594779897,4.252005336
7.771639648,8.713783367,2.011436799,2.962283485,4.56906956,5.11546354,2.091470846
5.579558076,4.580245601,5.272615057,9.066100569,3.149341312,8.165324709,4.982127741
4.76694139,5.479503767,6.348536283,2.743307914,1.903869674,4.678890101,6.620810979
5.765493532,9.827200648,10.80138583,11.46167165,10.94174544,13.34753524,14.10997412
4.205125787,6.165150095,9.846542423,10.01900701,8.75279263,11.27857059,9.166693869
6.857163762,5.399166612,6.517675194,4.436154998,5.893049887,3.52857309,4.782806019
9.778542298,10.05930274,4.377475092,4.810591399,5.888138177,6.563822211,8.441128678
7.66221723,9.347932149,4.022548678,3.138780706,5.056018099,5.405936161,5.641326216
7.122345033,5.78801749,5.316589192,5.566991661,4.370246265,4.117135962,4.957391148
7.545477294,12.09048425,22.40522198,27.61187065,22.6895238,25.96219358,20.28276806
6.6614278,11.58478246,22.17385747,20.33620995,25.37833922,20.86696642,21.07176064
8.73093818,7.451388659,5.198437922,7.083922464,3.507084877,3.881405661,3.567175956
6.256517964,6.447821041,4.701574521,7.284135702,6.761944411,7.126445738,5.17353719
8.417677788,61.70611971,218.6219604,306.4218497,322.2701191,388.2162349,323.6772896
7.075658067,63.30433561,191.4348912,315.2214466,302.6420494,369.8411559,319.8527237
9.445329521,189.6756081,661.1327421,1047.16831,1044.888182,1262.55668,1242.136486
5.370113907,203.016636,811.0852862,919.4443822,1106.579318,1222.914289,1440.30787
5.774529811,5.997892138,6.187719047,3.508202116,5.018473018,5.824034656,4.287994017
8.490216815,8.069339441,7.650310203,4.581277091,6.986248526,7.251473738,5.346236432
5.999599926,5.949081649,4.92036023,7.553510035,6.267646201,6.216933343,6.569499841
7.167709244,9.117317359,5.146120364,5.452328881,5.265804988,6.982878256,4.221134565
5.982941193,52.94014539,168.212191,228.7230546,298.8231786,166.7015688,317.6414879
5.436474572,49.65357817,168.8458249,208.5678303,318.4713537,209.2824541,325.7986541
6.332856366,9.409096253,9.972967189,13.52903116,10.6426361,12.33407467,12.30890782
6.835233665,8.186026342,15.62280001,13.02902414,14.78447657,13.44880104,12.74569072
5.878619746,214.1764239,646.2571391,1328.596908,731.9799496,2196.451814,2011.504952
6.846257841,200.4070855,685.1764781,962.9623295,1182.958533,1607.108629,1966.071325
9.423583015,392.8887085,1326.748592,1792.880415,2491.012404,2337.806289,2688.628607
5.704402772,425.1575885,1108.864186,1977.110208,2273.131743,2962.429689,2547.965838
0.887036369,5.381824758,9.537545421,9.572570665,3.182567938,2.711691489,0.772340638
4.109217153,8.195025165,5.669695957,7.541532279,1.374485512,1.705885718,9.087523759
6.679420109,17.10657434,4.361224659,7.850892185,8.441822254,2.258363797,6.285476966
10.08009686,5.858035102,5.000806578,4.798499846,4.941514584,3.532793675,1.23733668
5.835818533,7.792937871,7.948994019,3.062861836,9.023486499,45.8535138,17.64188259
7.423985153,18.67911899,7.214921441,0.284728783,2.858381072,38.95136178,66.28496519
0.467822488,4.764822133,2.055085387,3.70772363,0.0,0.996936892,0.0
4.759440163,4.132562843,2.681371638,3.39800089,1.643196325,11.30102107,3.121593613
4.690876368,4.709575507,50.88933557,90.87838684,31.23160106,4.252546838,38.04974576
11.9183964,29.63512992,38.5735771,26.31544311,259.7418452,2.268891481,229.6992257
1.223406279,8.635759534,3.272837522,15.26609998,1.954384381,1.639417977,0.683266345
6.607957051,5.3488383,6.369462998,,9.722907808,1.221015955,0.135031765
4.112525596,2.290265698,3.749913561,1.694449534,1.388441046,1.800800843,1.968310573
2.07020275,3.000364814,3.3259716,3.981758482,2.965512027,3.295586367,2.914518038
0.988457004,2.346549922,2.431961982,3.751813651,1.24254446,3.426578022,2.732492068
4.852495404,2.825407115,2.699021779,1.808687195,2.010166182,1.730835462,2.553391284
3.500010352,13.09724442,34.32161973,64.74392503,79.57657586,72.07370825,69.20828004
5.746191245,8.293576288,41.39388052,63.56102447,70.83923644,70.65765816,75.45164898
3.515434806,2.492521397,7.161709395,5.334704054,3.492776555,6.899975647,4.065782122
2.494069181,4.24415924,2.957513932,4.20395139,5.228843339,2.35011286,3.64337861
2.240771172,62.50547406,203.6632081,320.1275482,369.8288561,295.8884714,371.2742915
2.8324462,65.31905224,199.4745341,278.2244229,328.5288786,293.039585,418.5687639
4.604812922,89.55600014,287.0125448,427.2755702,538.94635,506.5960376,542.5749433
1.717197789,91.36783041,311.4325532,415.7964025,522.156039,397.3634366,550.7786012
1.587384406,1.811555227,1.854353077,1.660202139,1.445855148,1.920456424,1.534115139
2.848891362,2.305653124,3.036143875,3.264924984,1.56821364,1.688464257,1.997633177
3.600929761,2.13699969,2.440456862,1.534424431,3.498579882,1.910407427,1.952419354
3.705709413,2.137441399,1.417426776,1.328782545,1.323434738,2.408663901,1.840854243
3.43376687,3.403214618,2.009302219,1.390100195,2.471657343,0.792728498,1.905379145
3.225458765,3.160376359,1.412198425,1.437060284,1.59459687,2.646412604,1.089392712
2.923612506,4.895150917,1.837369652,2.093381249,2.390885815,3.479866151,1.227478075
2.822635934,1.961557234,2.58764132,1.183235369,1.717116116,2.099303198,1.775960347
3.154185973,2.499059845,4.032804306,2.735265597,2.419579501,4.362814227,4.983961733
2.684210216,3.30742667,5.272887375,3.626014764,2.352609595,3.37724841,3.289359978
2.900926913,3.448848807,2.325175403,5.269296973,4.931014123,6.533343163,4.970481799
1.928793943,3.13102966,3.290735924,5.992446687,4.208927365,5.454129804,8.073137762
50.10904168,41.29482778,45.92102152,43.49639841,44.58216341,34.32315202,47.92701833
44.43918595,50.41131547,39.62884198,32.13501576,43.13242206,44.75272996,33.44976822
50.87122308,52.87063977,45.30387365,49.23609525,55.15472144,51.13488696,50.93983547
48.60441871,46.76371541,43.09152596,46.18596049,52.25338418,46.30109901,44.19326954
46.13378962,198.9112249,662.2548123,921.8987117,1277.186158,1267.818184,1420.86647
48.78078815,223.4261235,646.6778568,990.1045995,1273.187276,1527.245849,1276.817741
52.15767674,67.80627659,97.43267257,126.7016846,141.990535,147.8262823,168.2135661
53.64302848,66.23186565,108.2003509,128.5095857,151.3906769,166.8464055,132.7512088
53.94301087,430.6876051,1243.231324,2015.925042,2211.707736,3122.624761,2998.868696
54.65531467,466.0170712,1286.475107,2203.566948,2326.797205,2949.80428,3506.909575
49.21037608,460.7833155,1384.883919,1768.56278,2540.032295,2450.144074,2914.641488
45.46311046,477.3646478,1749.727365,1796.149783,2664.862864,2605.061398,2883.115221
18.49711679,18.69881338,14.16702403,16.74023617,16.58365599,12.76486514,15.94509116
19.79420245,16.60411745,14.45652248,10.75947191,7.80054296,14.61772322,10.37041978
20.48886803,16.9620467,19.50728749,16.42838711,13.30299328,14.79349917,11.53497477
15.62529394,17.80658461,23.73967254,19.02684512,14.33975934,14.76789607,15.69880104
17.18744383,42.88051905,166.2553473,204.3466853,223.757008,269.0257407,283.1329241
16.81283546,44.79036663,132.0780744,202.9009701,248.9767395,287.3693428,254.8888668
20.29215376,25.32015115,31.5631045,36.32907188,33.28484033,37.70744169,36.49255768
21.54666638,19.69075273,31.46675848,39.88441033,33.99883883,34.19067259,31.97225231
15.22080229,86.28872525,276.6559978,335.7366431,393.2637928,383.1658833,476.3085618
16.51857231,100.0653056,248.1272348,333.8427012,414.8603115,422.0367468,487.1922044
19.7710488,123.853572,271.7490008,415.0233928,475.9859645,661.5110285,623.5086592
16.30410851,111.8053102,332.3418827,331.8501347,573.7643918,607.0162741,647.5178068
6.911048949,5.671651518,5.898782787,3.026954627,7.052998276,4.523649724,3.54175023
6.661592231,4.478822848,5.559547253,5.389616239,6.095146304,5.5125432,5.16907259
3.623130348,5.164460647,6.254548517,3.876624371,3.693765923,4.413202887,4.788969379
5.70893142,9.989975737,5.349426001,3.461297543,4.950684309,5.800671485,4.259697466
7.22484184,6.547782273,3.908506143,3.985603799,4.883538674,5.025881737,3.223845166
5.497272643,4.656128605,4.374820066,5.180535371,4.178399915,4.146133234,5.068897119
5.605279945,5.89057063,4.93405592,4.586448456,4.862202923,4.370341063,5.829626576
6.850886869,6.12152834,3.54568711,6.485660391,4.387400311,4.888457859,3.576290651
3.98103336,6.359094357,7.535203884,6.89299632,5.279362147,6.127905754,5.063326557
4.938908364,4.835690969,3.25212114,6.666546674,5.726562491,5.45577741,4.498511311
4.131183327,7.377418295,8.850553547,9.874807224,10.35817845,8.472848312,10.88393945
5.977247992,7.711142226,10.06259415,8.685174112,10.86224359,13.98440567,12.40247644
6.722801829,6.920269763,5.70058817,6.053781327,5.3014118,4.139851437,6.876560047
4.681471787,5.390501486,5.174479104,7.31121235,5.287026272,6.023596446,5.114188245
7.475462544,7.529878576,6.690188728,5.080789432,3.841059144,4.98745759,4.000491913
7.360396295,8.58469562,5.74553263,5.758569108,5.465012937,4.734814277,6.502525833
5.991855829,13.23748988,18.24637049,25.30716601,18.15898633,36.7747495,18.92729292
8.197046433,10.65681666,23.35282247,26.63936647,24.76928146,30.29067637,20.53485351
8.299119795,5.138465943,4.782018716,4.955059068,3.178358235,2.871055075,5.613428434
6.769640698,8.367732553,4.772599046,5.344831605,4.75495367,4.99420201,5.475888512
7.773367459,60.31346284,213.1690093,293.7017618,312.8513788,385.2853044,410.8629854
7.554401682,55.42501998,202.8281963,273.7613141,298.9083373,393.109379,412.0702481
7.19365941,192.1531926,632.2944811,1089.026701,1218.146771,1107.825878,1142.017176
5.892703455,169.9584915,571.7509501,931.7075835,1165.360638,1091.707681,758.8010648
5.55874616,8.186559411,2.930538675,4.639364787,5.893707787,6.201003518,8.544017611
7.27608775,5.78656514,6.2904346,4.981787666,4.243498393,4.106768067,4.702115964
5.721027699,6.018493715,6.250948433,7.021781393,4.562944186,4.354130974,7.269513161
6.27150601,6.015206175,6.769916582,5.371455684,7.105925474,5.068157672,5.91109971
5.828639899,55.6334827,154.8504037,248.6250594,271.3987048,280.8683326,245.1767421
4.719029714,54.7677487,141.9249885,214.9114268,303.0915615,232.142014,319.7716405
6.734418151,6.413188508,9.614092946,14.36111573,10.41130119,14.89608252,14.14997666
5.590799369,9.331020914,10.29566916,12.71373044,14.28076423,12.04539056,12.99726802
7.336851146,212.2102835,690.7016884,1162.967395,1088.141594,1825.884607,2100.627432
5.094977599,169.042867,783.3326371,1248.254058,774.9131498,1886.037802,1997.653946
4.946026795,415.9004133,1399.050759,1860.770411,1360.410082,2717.09351,2594.728988
7.425495727,304.9417727,1470.727866,1936.937451,2344.454353,2872.554732,2934.497705
3.932721444,8.757117287,6.528307693,6.299745733,6.087274599,6.929839669,10.42189358
4.48975425,9.911637659,8.252389955,0.810041243,8.293809328,13.47351422,0.313393324
0.0,3.918860285,3.895019977,3.875994408,4.133975917,1.800242714,14.22100593
4.32086304,22.569838,4.457807317,8.669511623,9.420638353,1.181221757,0.513480137
0.809097175,5.293981122,9.297628988,2.043351368,7.187033463,27.63801472,47.62282139
1.511865945,14.85748791,5.055003968,2.489823781,2.100719148,64.20274022,31.16536068
4.943430556,9.907499404,5.755509638,11.67912159,2.353047467,4.316177918,0.0
4.511900354,11.48648084,0.260252357,7.145326281,1.435622002,5.413414074,4.534557905
0.0,23.12510765,11.39993722,17.97331807,5.553416914,14.83496609,24.29613089
12.59190242,20.47200542,65.31514257,31.08202433,243.1467369,21.85506786,45.8023752
5.416986349,7.268493577,7.812253246,53.15423445,17.645544,1.302959539,0.0
4.373508841,7.612538915,4.624079147,9.00431542,5.386326839,4.352716801,0.0
2.264022395,3.50784822,0.375897312,2.242185436,2.868140997,3.011874159,3.490685386
3.5781808,2.951645803,2.563294697,3.295271241,2.383863251,2.286554861,3.367307162
2.101692055,2.517365671,3.116736541,2.60184473,2.252506025,1.864942861,2.466873935
3.057019705,3.949194679,1.216552627,0.731083749,1.727960609,1.667019972,2.089102749
3.279702706,7.725900882,48.6410984,53.43963017,71.565797,66.73898305,70.00345067
4.515700804,9.588050222,38.14531161,59.46761998,79.27874051,65.37453386,72.38841756
2.913151866,4.346198081,2.779717522,5.911316468,6.564769578,5.49675311,4.367913504
3.729837072,2.760294328,3.477677459,4.877754621,3.619715938,5.51716301,6.001573885
2.923894905,63.23375376,215.6238239,266.7255811,357.0453656,327.6999914,381.4074038
1.662599315,59.02854393,210.6229767,295.6102646,309.4671214,393.8803354,372.8896636
3.834132215,113.7373908,338.1852967,435.644144,559.0481519,459.3100966,577.3480503
5.273235516,88.03953331,309.2708782,416.3829955,511.7259236,429.4203402,566.1991672
1.944721239,1.068927751,0.873172601,1.512662841,2.509826708,2.540712948,0.0
4.317492908,3.229521927,0.892539523,1.141268331,1.288185618,0.664216729,1.088518722
2.074563955,2.784107008,0.651457947,2.059128538,1.629480101,0.683771714,2.533476773
2.797509566,2.305715237,1.564100427,0.20847108,1.544224303,3.021511653,2.691397758
1.906688123,5.43011024,2.682809532,3.081211865,1.908555675,2.030686886,0.245891047
1.664821988,2.681234302,1.896069701,3.692147145,0.624707897,2.852455245,1.168845051
4.17019051,1.859219335,1.993677769,1.712726346,1.182367496,1.71840475,2.467190688
2.891585199,2.365599388,0.975577529,2.16429284,0.822388526,2.468207008,1.840420132
4.163615845,3.205860053,3.832569193,2.944640751,2.361712339,2.52219389,6.045515476
1.494153273,3.83564844,2.265015385,2.62653987,2.8145409,2.34897541,5.193648963
2.576548921,3.793346869,3.401381484,2.34864283,3.577301806,4.356961556,5.230600891
3.299479984,2.64342058,4.634158208,4.334603928,3.534790789,2.988270529,4.836517465
53.55453595,47.85323172,42.27411189,43.2089665,43.45108029,34.37704326,31.95721844
56.91311074,46.24243286,47.37818611,37.75308272,44.46080472,38.30924679,38.35226524
51.61876307,43.22507933,42.8374497,47.51766576,42.82042084,42.71189781,44.3057686
61.1394978,52.87691102,45.64943373,53.44619915,41.63100275,46.31245445,40.10327546
48.87991287,234.6332402,725.0116698,1071.723599,1153.222019,1370.200498,1361.281696
48.42960034,221.0423825,718.6882333,876.7457414,1297.689755,1408.824333,1431.285614
52.74686263,72.8502127,114.7156722,152.3049315,155.389106,165.5864357,130.5999817
46.95981645,73.37816116,102.2642016,156.5383756,155.0430741,148.249325,148.9972685
56.80351103,388.1711938,1527.436072,1995.365616,2364.278561,3016.978384,3130.133221
47.50968139,427.3206995,1331.835411,1621.268864,2362.914835,2678.172795,3098.092202
46.09744936,468.2277196,1593.828721,1725.704256,2617.433526,2186.426951,3456.271124
54.85432055,466.3533003,1609.99232,2028.492221,2399.811291,2604.50269,2977.511287
23.37374854,14.69627982,15.2365065,13.82993914,12.62656038,12.83646355,11.19485138
20.20489909,18.36254385,14.34528686,15.79287581,8.396438173,9.679903488,11.46255214
16.46738641,22.4982428,16.84942907,13.83143014,14.84749185,12.66306751,16.43508998
18.12503087,15.14533599,16.57618037,13.39092706,11.92804055,17.94717939,15.14105874
19.6263802,39.47318595,159.2026501,202.914665,231.9164867,279.1794226,293.2566631
15.34439905,40.65902099,143.8385502,216.5387754,270.3814502,285.1377766,241.9026203
21.10143263,19.00314418,25.95355134,34.45533374,39.59961556,38.80184993,37.76348098
20.38334782,18.21802397,29.57414846,30.79100675,40.32533174,38.4486093,32.98461364
18.11791,90.54266854,279.2533531,346.9551776,381.799523,435.4622315,429.4100479
23.27497244,87.60172797,247.1865183,368.8013465,367.0464287,405.9999944,442.9720796
19.85988106,100.9430641,337.7247845,427.3414995,402.893487,654.6892742,584.3298394
16.61783016,109.407859,321.9294423,365.6464616,513.0167084,506.9351321,519.2155754
8.152920835,5.174005118,5.189562381,2.687709847,5.976097807,7.553766295,3.972040657
7.493465106,5.5233257,5.630039113,3.821307289,5.233215903,5.153184262,4.981916209
6.506266173,4.824304394,3.561547862,4.603720292,6.377547866,5.04921034,4.754714596
6.504918092,6.648869323,3.491960672,3.517114033,5.424263088,4.792923816,5.868468385
3.626825652,4.226532493,6.509402232,5.335192855,3.217728251,2.915433585,5.046684899
5.327656261,3.259391119,5.484697614,3.813529047,1.087085145,2.745005355,4.578065725
5.795246266,6.574506017,2.513901966,6.273374089,6.921268935,5.060144353,4.796571025
5.602904002,5.013515559,2.521487746,5.390363131,4.085761781,3.956313215,3.944772306
7.507608017,5.714469973,6.29926161,4.303480449,5.609962584,6.603200094,8.314605948
5.91853539,6.031555959,5.149313956,4.250487108,5.221714995,4.925530439,6.433117051
7.571682326,7.59896102,10.36555682,10.38280366,12.19451255,11.99313035,11.61036682
6.452474021,6.889741275,9.373148362,15.4934637,9.15297753,10.74254517,10.09100832
7.070563414,7.170865717,5.467557426,4.999199756,7.805664864,6.204947367,4.926114562
4.063694284,7.322488052,5.977000955,7.133754959,4.560084363,5.727747614,4.903814713
6.251323483,6.438301369,3.526613057,4.969851366,4.180945162,4.941835732,5.54311392
5.990720806,7.850290883,3.743287153,5.631905054,3.987026331,3.998701306,3.43497705
8.589465207,11.70301201,24.043362,23.90407903,22.28299364,24.69131521,24.31911389
7.931453275,14.44202059,18.24587046,28.23272678,22.04960131,26.24209064,25.2374606
8.109177268,6.127015321,5.717209716,6.93865976,3.199385205,5.149488611,2.863564195
6.484954107,8.179716529,4.285158621,2.557443842,4.121200937,5.717132658,4.787565302
6.741977818,58.83157463,207.3175466,299.0319152,310.2436576,432.2708965,368.0109552
6.488163767,50.50604578,179.9057716,284.9534758,355.379266,393.0801815,342.4368951
4.980590191,190.585445,666.9723227,925.9597579,888.3473174,1191.028323,1105.925612
6.886785881,169.3941889,702.0552908,1005.504533,1196.881727,1102.131169,1106.481414
7.030041789,4.310642141,4.867145098,5.905633524,2.960965507,5.288659207,6.376242021
7.115489111,6.407601578,6.622164662,4.444202918,6.798264905,5.747370727,4.568618466
8.910798099,5.796075509,6.347012586,5.53112394,8.135316714,5.358131678,6.518470822
5.559522693,5.317221729,6.225382083,5.957370124,6.706057807,4.889077181,6.895422433
5.58565297,55.7364279,149.8355895,223.1625648,310.9325323,236.8457341,311.8478483
6.752199599,51.37618113,176.2268042,297.0185231,322.8319281,284.0825547,260.4947904
5.184933727,7.797445859,13.88353975,10.60878345,13.57486267,14.89761718,12.27893286
7.739693659,9.522118396,10.21714596,10.20630658,16.71142362,12.96254759,12.58122035
6.343498967,183.4273049,692.6840266,1374.900208,1122.761982,1712.109558,2093.841316
6.271405817,190.0308365,944.0943868,1048.558152,683.3291277,1779.123985,1971.033486
8.090685591,355.6510325,1183.045951,1971.085353,2449.451347,2644.804325,2944.893043
5.669941609,388.8404629,1522.043383,1925.687111,2751.427902,2817.28567,2683.857339
2.757701022,4.5840083,13.17327296,0.0,3.857727385,10.75172472,0.0
9.309431344,4.386028338,5.844851115,3.405744541,5.88169288,9.640802322,1.769980662
4.170872207,9.711501339,7.383066882,5.845933372,7.64246953,6.851300477,13.56060086
5.618767521,3.763014777,12.52998802,3.440250905,15.23628869,0.0,5.864037915
3.623733088,6.583401764,14.31617254,0.671453693,12.17956387,13.00317178,58.01121602
0.0,8.968091132,9.597623299,3.082772273,5.022280849,33.63842142,81.07067875
4.17961036,10.15319823,6.219371742,7.242331964,1.132359199,13.24542916,0.349034328
4.211549832,11.48215466,4.644496726,2.13891124,1.978378046,0.0,2.997560222
2.68333613,12.59966991,10.59110741,44.26257094,100.4976908,3.644266514,25.46204771
1.337164372,39.1173063,56.82484956,88.86952054,10.38571094,43.4707961,45.0923485
2.128605457,4.360499191,5.609935814,4.03233178,,0.889956095,0.98695802
0.234095756,5.170082,5.918383593,21.56103333,8.768086782,1.197831204,0.551491568
3.59802139,1.206461468,2.801845577,1.250175993,4.011689165,1.610162729,2.227818542
2.275726098,3.036867397,2.001990953,3.047131261,2.03939508,1.948630203,1.261110891
3.273339518,3.311655356,1.746118682,2.079253618,3.79005053,0.833480189,1.943203037
2.94313825,4.10864347,3.904959863,1.483095245,1.11272927,2.228249223,2.731523017
2.013233715,12.73671238,50.68795129,48.59497203,71.36304631,56.2437136,68.67238453
3.792128598,15.68296657,31.0934791,50.9362537,67.02552594,59.10434724,60.03414057
3.009477852,3.585828523,5.370123128,5.132770257,4.542701458,7.357499597,4.038560468
2.849337803,4.420244961,3.889149284,5.155247332,3.779129376,2.964402695,5.219740787
3.299002658,65.38595202,202.5554028,284.2437849,343.8156162,284.1287969,355.7505064
3.575915736,65.25731676,214.6181635,295.1709923,395.1552825,370.0150392,390.6159534
2.908428036,109.6846174,267.533511,389.2568944,437.3130051,417.8533,555.0803425
4.999425394,83.66801538,277.9605365,472.2386251,583.5866297,331.6624901,489.6371441
3.57657335,3.236955159,3.13626287,1.527780264,2.138614699,0.368492997,2.804433758
2.27863805,3.373980437,2.068723928,2.196084016,2.926530911,0.93394945,2.552955725
3.300794744,2.635952542,3.092447616,2.961425025,2.374549185,1.371137592,1.49326769
3.062473936,1.890422504,0.482850315,1.997756402,0.818334427,0.409281595,3.242519203
4.305538339,2.431868129,2.786560677,2.753116958,1.720241723,1.691992458,1.702060986
2.355966343,2.078633486,3.414904285,2.840510634,1.029647376,2.99625749,2.179287202
2.448828446,1.937809482,2.6926134,0.791382453,1.479854356,1.749206789,2.026847922
3.165611755,4.623801933,3.305696602,2.315086607,2.649590744,2.51172916,1.140987857
2.670352052,5.279652958,4.23276427,4.73778563,1.286655901,5.055332128,2.748516301
3.527169771,3.249691624,4.584457524,2.927722356,2.344424449,2.904495921,5.167895543
1.758292476,4.822040831,5.433934131,9.190011393,5.037167483,4.488438897,5.452733053
3.077037416,3.828302299,6.727337557,6.743783979,6.301387568,6.344839334,6.829681637
46.00375199,47.47368303,54.0426882,41.74264482,40.43024587,42.11026211,40.89292981
57.51128022,48.74882066,44.64704655,32.95238405,44.22375999,40.94340611,33.12612053
55.15111622,49.83590324,46.05230284,45.43240282,53.54315049,51.69021892,47.93885436
45.02992848,39.37453915,36.09839045,51.71417275,41.29139239,42.76878541,46.09362557
43.54899727,228.7818691,670.7543748,942.8145811,1070.062673,1389.827157,1292.174518
45.61345968,238.643899,612.8129609,934.8408685,1192.201703,1368.617481,1187.597746
56.21370344,70.78436554,104.7958311,134.5563348,162.0623554,145.8706108,159.3489684
49.90296259,59.56452335,88.3205523,126.1242844,150.7345423,166.9615628,140.8112616
46.61039042,404.4041007,1358.727058,2082.630657,2361.650394,3167.0708,3287.431965
52.37663238,404.1459809,1360.995018,1981.110737,2622.702889,3008.970857,3028.745368
47.4221077,525.1780384,1519.048557,2336.314898,2505.289413,2766.662149,3167.209372
49.47917924,476.2576542,1330.088174,1971.135607,2196.849598,2937.896439,2390.906148
17.45168828,18.6795116,13.99210219,10.6733564,13.73792919,15.95956461,12.23158387
19.32706793,16.90364008,13.3808946,15.09167415,7.916387289,12.20339376,11.16617693
21.96566626,17.84406739,19.62518507,17.19551492,12.28286037,20.55622994,13.393606
18.77697237,13.71410545,13.01103739,16.3392012,12.23416777,15.36892339,11.49754056
21.6817091,41.48847856,144.2212892,218.9662742,233.1958149,231.4814548,257.706543
20.23273739,45.12678396,134.2959222,205.8653599,305.2994289,213.5900004,280.4729975
14.98521138,22.95514505,31.37978992,35.21099634,39.75593969,38.33697169,33.55725574
18.77982967,19.48392732,30.13881613,32.87179535,32.59497327,40.40209231,38.37288713
19.14421425,89.35258182,284.6944585,354.1692834,402.2392939,437.3066817,479.1457604
21.45393265,87.04806398,290.6224877,347.8288831,433.8115173,414.9571948,460.8379445
20.12448952,128.2376518,300.2685145,363.70867,465.6339389,507.1087702,535.6282625
18.11037989,113.3492129,342.4547444,426.5130902,394.4383575,571.3978823,538.3394711
6.356269632,5.980210155,3.784909429,6.199111768,5.547556031,4.685752198,5.658893022
5.699731967,5.779929082,6.520766415,8.320013664,6.014525153,5.506283499,3.854645104
5.929398453,5.744683325,6.086484935,4.904669552,5.650066695,4.644806956,5.712120597
5.179520519,5.746778457,5.054602892,4.677080258,5.292246166,6.568213679,4.19606967
5.152529574,4.928707499,3.73003141,6.41846748,3.212599723,5.80091827,3.487035156
5.704600827,6.497260012,6.50729834,5.79200908,1.583749027,4.964306435,2.52593562
6.525550804,5.74326194,2.563925393,5.358857138,3.719954613,4.29225745,4.024771495
5.188747482,6.43423146,3.047861538,4.215143308,3.845074568,5.954675353,4.411629692
4.993193389,5.959992871,5.289433157,5.379161108,5.109763392,5.864011024,4.969630825
4.491651266,6.893758637,5.586594629,4.551544869,6.097254544,3.042033203,6.731566689
5.095662206,6.157021226,10.41055887,12.25217104,12.27497631,12.56242248,11.44626447
4.461904775,7.394473756,12.4520432,9.745281454,10.90311459,11.04226782,12.50709566
8.442566615,8.337218297,6.555768253,6.072772266,5.299904251,4.815440843,5.108191275
7.53257651,5.371742786,6.137439913,5.655133414,3.222059122,4.5611514,5.282287145
7.778823172,7.086725405,6.527653121,5.904824294,3.441663998,7.294039906,3.852854214
6.224191235,4.875705548,5.224950941,5.191100926,6.389583975,3.866080717,5.890347438
8.215227058,10.95987829,17.76671418,27.64831301,26.11083905,26.50110561,22.61428812
6.527970665,13.8157447,22.02597827,24.07589823,27.24155426,25.84999061,23.79798463
9.155561238,8.566741078,4.756311083,5.984963664,5.939958695,5.834654724,5.089395933
6.872449701,9.43727,7.019299714,5.059004328,3.549560743,4.843793871,4.813757928
5.939436103,61.27791962,170.0978144,343.1836934,357.6533694,360.7193715,383.0715203
6.078896734,70.0879461,145.2281225,292.9131143,283.6977937,387.9406146,404.4199727
7.39676996,170.9928302,663.5679267,936.2398286,1106.362539,1001.928795,1331.228537
6.359169092,183.3846601,700.6454537,1034.134361,971.2708076,1217.46373,1223.621682
7.865015792,6.422538378,4.777273875,5.055133636,4.773069284,5.769204199,5.436853906
5.486931663,7.22157225,5.534805227,4.755651072,5.834301235,7.010596227,5.327587617
6.13829423,4.653912866,5.829727119,4.56321427,7.932487641,4.268258956,7.61509872
6.37501128,6.554996723,4.603614317,5.384741121,6.491371206,8.340141586,7.549994822
5.129554576,48.44822535,141.3453293,235.0891004,249.531355,239.7676118,326.2483041
6.830536604,50.68481821,137.6216188,258.3881053,299.6584914,235.9681289,267.1125301
6.002669453,9.681436341,11.52760172,12.5782385,12.17804925,10.64871768,12.84722089
7.489042222,8.300232014,9.600249073,12.66919794,16.50562271,14.96302096,14.79435846
5.548025965,189.8103257,694.0736777,1154.731904,1153.159697,1981.810222,1972.316847
6.566535505,218.2038972,703.4073796,1206.798805,319.5161565,1827.774103,1859.340211
5.238760491,401.2476281,1284.209743,2225.551522,2122.809865,2214.515465,2833.494819
9.651473986,331.5526961,1275.896089,1913.614586,2621.157102,2931.329384,2710.193355
2.009253103,12.49725393,6.005007686,1.306334546,5.40193671,2.329094441,9.597821131
5.841704922,7.039848543,1.884964128,7.989952036,4.865234711,3.675823802,4.75049058
0.44061679,10.86880619,10.02668914,7.834398944,5.352840887,0.0,6.689812074
1.534366197,9.39010244,7.762573226,8.598767439,3.118228647,1.385745115,5.156103091
5.800703365,5.4819502,6.56946055,1.440503346,12.34862968,12.42408294,18.45774378
4.319184624,6.874203634,11.45501798,1.398356793,4.944459183,72.36147974,53.79161139
2.525085968,9.789378058,2.982332716,4.410390096,0.636504976,5.720858292,3.073746638
6.47536609,6.785484247,2.741599759,6.871639879,2.115486772,7.624543533,2.508902529
3.178179748,17.11609383,41.41072251,83.49659323,20.36463545,6.7936953,6.247040043
5.489764027,16.01228868,31.28765675,25.87600852,32.38150264,23.23361508,30.80824314
0.501536756,10.77351582,4.374769887,15.79335825,2.97592189,2.691704504,0.535994875
3.049635081,5.636322198,4.379749315,51.64966674,1.302717861,0.957524842,6.723755507
3.815760964,2.778479232,2.565006066,3.950674987,3.815553365,2.552758967,1.782473464
5.076092063,1.958757153,1.898166156,1.969049945,3.386834642,2.167683727,2.858446282
2.475366629,2.965629446,1.245220092,4.472425807,3.451043182,2.281621894,2.927034508
3.843071508,3.310284665,2.095605,3.227397541,2.611786395,5.67032314,3.134720224
3.161917641,10.56856091,41.93751181,64.67218126,64.90052112,69.13499483,83.04589003
4.234182542,12.89847355,40.98992297,50.07831248,73.79202837,74.21123936,71.29302286
4.975446856,1.913696614,3.673339171,4.506595434,3.055278735,5.672614745,3.429382613
4.863789873,3.37864849,3.027386746,5.056451186,4.500373452,4.52936487,4.942974407
2.967971001,60.24625446,261.4625024,313.6774035,327.4670388,344.6809964,379.5773824
5.805966713,65.13043447,227.9742155,277.8215291,335.1733876,294.5689894,374.7632326
3.449339887,88.04090062,233.2175427,402.9928634,535.8377287,467.8673163,538.5721008
4.347382184,94.83308765,333.2463867,348.4217934,450.3643458,366.6237309,609.9241328
4.072617411,2.899648775,2.801113305,2.305086421,2.155382876,2.372189278,1.322155831
1.865157216,3.215469188,2.312728574,1.048321916,3.210960739,2.284116065,1.616898706
2.810656363,1.003632845,0.906467779,1.892127833,1.475574386,2.01375077,4.073616874
2.883303406,1.026750926,1.647496477,0.0,0.35165435,2.811560312,3.101676476
2.891993763,3.38077752,2.513213601,0.073426378,2.196395545,1.731833535,0.327953211
2.204799824,2.61327267,1.345514319,1.757072308,3.013105432,2.734468948,2.068624799
3.430289865,1.118939767,3.936626096,2.65305894,2.401797494,1.274836451,0.522362291
3.306926649,2.066914846,2.645180827,0.300257763,1.281193717,1.789086497,1.121274191
3.10991015,2.875204753,2.427203602,4.437381353,2.924899316,4.526876577,3.182185998
3.514690299,2.68968108,1.16966019,2.837332924,0.891990071,2.228588157,2.879974214
2.699397025,3.388791391,3.70421425,2.617516386,4.912731958,4.396800233,3.477817404
3.294448324,2.528788116,6.939425823,4.301100323,3.977730963,8.233428919,6.300450411
54.52137772,45.61807461,49.45233393,34.77597171,37.39610559,39.1359393,38.5656437
48.75770843,46.79700505,48.79964536,34.35978812,45.69697885,40.17840448,37.18227427
54.82425941,49.50372647,47.39865192,41.70744532,50.09711941,49.25516506,45.69748214
53.68474772,40.21653347,39.93821114,39.73722068,41.5951314,45.37207259,40.17139856
48.03013082,252.2827937,750.6873977,1017.70449,1295.939007,1491.823769,1425.488457
48.53847929,274.6397404,645.7935707,1093.669367,1239.307703,1337.271018,1504.331606
47.27435814,64.13890309,85.60288522,148.0186863,161.7778771,146.252432,140.2750531
46.48451489,62.12244548,105.7306128,131.167538,135.2540093,165.3668383,145.8440344
51.22877594,447.5969209,1342.815729,1916.321197,2963.757965,2800.666654,3542.441243
53.37002995,517.1702289,1246.276844,1966.079242,2264.218743,2603.98394,3238.135208
51.59371715,496.4285574,1527.349178,2315.017178,2555.161068,2725.87793,3121.005801
46.68921869,521.9956414,1760.067716,1762.873044,1886.246669,2761.687179,2989.30616
15.96497778,18.97017197,20.89390729,12.19681398,12.1642003,9.879401369,11.3855946
24.50587515,18.48667526,16.25628921,17.54367883,14.05215629,11.08484562,14.17804167
20.933136,21.22170305,16.52185129,14.82854828,15.22040311,13.45030793,16.3631243
17.2915481,17.20934814,16.02377241,11.3614654,14.84254957,13.66481421,11.95346093
21.56430624,44.94181661,132.4500197,209.5518804,252.9123475,280.4219642,232.5386856
15.50808698,45.89266119,153.7067993,232.0482523,220.5939654,269.9671858,261.4406183
17.81595133,21.97964719,32.73562956,33.68620906,33.10194714,38.95283696,43.15205331
21.53555838,21.07352468,28.92069935,38.85622569,38.09228312,35.1454596,36.11991131
20.64359494,96.82921762,277.2956518,370.2448986,376.9173179,412.0451725,517.3560195
13.18294207,92.31093838,262.071194,350.7136861,378.4794805,409.902637,457.5656152
18.05665597,114.5604046,302.7642805,421.7467851,445.4240574,539.8335145,644.4919658
24.92579183,106.0472052,325.8290619,392.1852762,506.6648435,529.1413367,610.0626074
4.184220608,5.674467619,4.73250105,6.828488354,5.038796148,4.513358834,4.769921497
5.35256369,6.994710526,4.955492146,5.678184288,5.163198824,6.695359675,6.691204036
5.727954984,4.159078948,2.322534247,5.258419617,5.025116513,3.891912762,4.263719172
4.381869562,6.462311695,6.627362949,4.680809952,4.852001309,4.725767729,5.371029181
4.622491314,5.945788312,5.621916596,3.668201232,5.282185096,2.259831765,6.360488302
5.570452354,5.185100488,2.93424599,4.897968264,3.040135501,5.289842263,3.127463094
6.775271225,7.105672252,1.474055461,3.419241483,3.080409268,4.815942197,3.630294186
6.790048481,6.083345612,1.142653754,4.442907677,3.24310346,4.723634311,5.821499065
7.437713477,7.117180657,6.961230008,4.141856268,4.252501642,8.303378361,3.662808833
8.096157583,7.920639193,5.363152048,3.976713671,3.755885532,7.802629347,6.868711849
7.33620552,6.926522978,9.59591924,11.09523256,10.57770833,9.904924878,14.34184014
6.070960033,6.068558346,10.13010188,11.899226,10.25263983,11.37917244,10.69577612
6.333652101,7.40004783,7.106216855,4.132024588,4.021475632,6.294313107,6.080487291
10.27203393,4.970935579,4.427473548,4.727306937,5.747349286,5.605258282,7.389558226
6.274737725,4.446797118,5.355858618,4.413852192,2.984728941,5.00320181,3.687569941
6.274053912,8.603259817,5.913692891,4.752511184,6.832575315,4.889747874,5.457486455
6.633931665,10.5840228,19.57196747,21.78232842,26.01588105,26.44046947,19.23434181
6.650104517,14.20098198,21.61388692,26.67789694,24.2598932,25.3169524,24.54329294
4.579121592,4.784540589,6.101137702,7.094184113,2.410540339,6.927112647,5.822262294
4.787196776,5.864763037,6.320805051,4.010066395,4.199931635,4.647728834,6.160270147
6.01552814,57.27987156,182.5897283,286.8029773,361.3247941,355.8886058,341.6247782
5.863785621,62.21634667,173.8093836,266.5918031,360.4584845,390.9074272,401.151898
5.058623637,196.6365567,627.1271985,982.3354765,1004.688012,1320.636319,1082.125614
7.500055241,177.4515979,650.8959152,1090.963649,1226.785493,1131.281905,1171.449199
5.481022969,7.783535353,3.230083695,6.538528046,6.250797015,5.875212901,4.249682666
7.36106371,7.319192874,3.965306698,7.316714987,4.802434053,5.274166699,6.388126614
5.903500758,7.306185483,5.916135128,5.115325517,4.423937177,4.303858047,5.552283402
6.028073692,6.084853467,3.996004476,8.184892066,6.272983719,5.418860234,4.779563341
8.111149331,53.13901476,167.3208388,206.8690148,315.7606924,197.6528286,287.3611978
5.923418931,57.90077136,175.6629977,192.2052855,318.8107956,200.2083602,317.3223875
7.338051177,6.470718185,10.47571276,12.36772942,13.83890872,11.44078764,12.67187135
6.712741293,7.833215848,12.6686704,10.59631365,9.866586276,13.13615386,14.28760486
4.130368394,210.831717,734.2603771,959.7089744,1014.585934,1964.07727,2051.958342
6.443505096,220.6741638,926.8309236,1214.609352,894.3833065,1488.246424,1773.235515
5.640047427,454.451757,1250.846615,1650.584796,2014.227449,2351.89162,2404.639027
3.685859173,396.0661562,1407.931084,1902.723168,2339.149308,2665.142502,2638.025356
8.158545128,8.219487567,8.265817037,4.336254685,22.04674277,14.03345576,7.096231115
1.960426494,13.35369849,9.161624931,4.255538741,3.904576038,0.017687159,4.054452689
3.074814243,6.739109311,4.114810066,8.574948761,15.3616319,2.039425769,49.7937046
1.069191314,5.354437011,0.696675483,8.857320633,9.459360779,5.844406591,6.175235975
1.772035349,6.789005541,12.43885489,1.286998713,15.67193261,17.86855808,47.99319961
1.410056603,5.927815594,4.433605457,1.248706669,3.728087278,46.86306767,48.63266036
6.301178369,8.199714921,3.440162078,3.833395411,0.286817586,3.158169219,0.394257908
2.037623041,5.443388947,2.766465948,5.741512401,0.871888075,0.0,2.447234286
20.67620238,18.13059697,12.23165775,70.34514208,266.5069376,70.44291133,16.65038792
1.087154177,22.20875751,14.97202211,6.291725802,92.41774042,22.9409956,212.4014276
6.828559216,5.667424859,1.212502095,0.0,5.272271328,2.26284242,0.0
8.017485652,12.06926169,1.407168907,11.7964186,7.91922253,1.56994793,1.872866786
3.478260218,4.328245514,2.006123046,1.124567827,1.588731754,1.506124773,4.355112629
4.164863584,2.499248427,2.890264838,1.119962247,3.573036525,2.802322653,1.4072768
4.127478761,3.421723538,3.149057398,2.670749627,4.702487525,1.976795503,1.748141974
3.983191809,3.332936307,1.487159169,1.598681565,2.790896455,1.492548972,3.131126644
3.941535682,12.22864212,37.67764904,48.90894742,63.61059515,79.43604342,73.99656827
2.81879799,11.41935021,36.45505519,46.16577598,75.49484245,68.88538378,66.89102487
2.6180745,3.443311667,1.640235875,4.898722023,7.406156527,5.44081653,4.18477526
4.44972853,2.80726586,4.654234179,5.777946528,2.824025685,3.952419729,4.372407197
2.869683336,63.3749682,216.2938467,301.7767626,340.0979336,361.4846758,365.0674684
3.465666077,61.33192638,227.5855705,312.5138956,308.9273881,279.5956744,390.6597201
3.108265359,93.06667479,322.8353951,400.8740618,499.0599479,367.1455445,520.291689
4.032756851,93.28713172,233.1457334,406.4904052,524.850097,360.2048277,586.7695536
2.992473282,0.878679622,1.684985469,0.89120152,1.600558233,1.324580205,2.560653965
4.379270093,1.910020142,2.928471737,0.730212295,2.004515051,1.377860159,1.700855898
1.99665146,1.41005207,3.427440604,4.055556907,2.42059478,1.735515288,1.184726291
3.119285182,4.094986024,1.659820481,2.593557109,1.770363624,1.490580418,1.013673418
2.920292898,2.614826644,2.182377624,2.11123419,2.361661996,1.833765075,1.06812551
3.02237952,3.469462325,2.859382838,3.006649513,2.024320286,1.127196874,2.025951091
3.773985997,1.393522864,1.909861334,2.903525365,2.126266715,2.053582639,1.638274742
1.794188844,2.461457136,1.405591039,2.443697154,1.961025942,2.226087627,2.270240776
3.739604779,2.753355195,3.48946096,2.95127254,2.816283947,1.678485978,2.974082033
5.961484513,4.202198326,2.951779498,3.664504528,4.329689667,1.989017636,3.381027156
3.482429954,5.127038683,8.157510737,7.021311617,5.569062172,2.612799093,6.951388126
2.218460074,4.514406522,5.443068093,4.799267693,7.214679277,5.51267934,3.142019332
51.58993541,52.4433889,49.18830652,44.79294037,43.50720003,46.24459349,35.76765968
58.39965747,47.10120115,43.418293,36.57898047,41.34793483,43.90626073,37.12564917
49.91280579,61.62512447,47.04361981,46.79440833,43.39397789,46.5940497,29.31078122
54.03632199,45.90010344,45.97997571,46.51470912,44.75743973,49.57969619,44.72866384
50.30313357,243.2043056,662.3467619,970.1043277,1231.858824,1291.958618,1477.163789
51.43082068,243.6954723,748.1481397,986.4095697,1203.05176,1412.144071,1439.799855
51.97985342,64.71757387,95.82761841,135.9120513,138.9500109,157.7340371,143.0219756
46.87032252,75.61365867,113.3321833,132.1357285,148.2268765,186.2189809,166.9103103
58.28876896,360.5440283,1386.550034,1639.480131,2442.53487,2965.039547,3206.87145
54.14862411,401.8263401,1339.170499,2319.349772,2318.827865,3171.486974,3029.173336
49.4107144,549.5127915,1374.956003,1863.772094,2108.079862,3042.238874,2637.782785
59.5157732,507.9173849,1474.295447,2187.345112,2617.070291,3109.404977,2585.480513
17.20451466,22.64769112,13.84383643,13.22424677,9.749598341,10.98570709,9.548762222
27.34886483,21.92286384,17.73989429,14.45843779,12.14725691,11.75622795,10.68993749
19.40441632,16.83927004,18.70900322,18.29516746,13.38252783,13.40860567,15.7006895
17.89665361,20.3733135,20.07211531,13.14604094,17.78519671,15.78186594,14.98419115
16.50229128,48.50916366,148.5682164,193.17155,256.6500974,246.5137515,320.3024234
17.12976689,45.28996672,160.3301742,202.3862822,257.0691302,284.2864139,292.8019345
20.40727371,17.57617762,29.36279727,34.92368409,35.27411656,42.23075051,38.16931927
21.46085208,22.47588023,32.57250972,36.96168325,32.63395567,35.52979041,37.61782601
21.5936821,90.84066368,274.5409651,327.9033324,412.0257179,377.2143019,511.8526531
19.40486851,104.1036519,273.8498796,341.7946267,401.771042,420.7568595,516.6226787
17.18605122,91.41496113,293.7737402,399.9147969,552.229082,481.2995564,626.163884
20.69462473,119.8387839,346.1620271,387.7222083,393.3483018,512.9666322,557.5747037
6.356841803,7.0760437,7.057970205,6.936332055,3.58104056,6.31149854,3.504034999
5.690516039,5.733701184,4.700818836,4.20065919,3.845354303,6.623380326,6.145176035
7.647651192,7.184206515,5.678917825,5.181630389,3.876771735,5.572579898,4.849884613
4.734710246,3.311417995,4.208650315,4.903623014,4.410003584,4.481773171,4.586467646
7.334255404,4.72555385,4.665316494,4.5431057,4.018287693,3.883767717,3.445765065
4.848895479,7.193390459,5.832613516,4.330102654,3.031704454,4.712770447,3.702015649
5.770504791,7.371996264,2.321130709,5.66576883,3.980940698,5.657281971,4.020893306
7.23064875,8.504388762,4.233741747,4.046799347,4.52575831,4.499657156,5.569260456
5.430814564,6.181047664,7.420085288,5.384623994,4.274880236,6.904501592,7.285065197
4.931692939,6.457845989,8.611609026,5.979552744,5.683714236,5.441442722,4.837683977
4.524884533,7.049427832,10.23457619,9.552161826,9.913810827,14.39691736,11.71812772
5.694311705,8.161190672,11.91795058,7.611660679,12.4557741,10.70862286,11.24266583
6.620141661,6.655656001,3.303338195,2.773041348,6.057077218,5.951582697,6.304561384
7.103715047,7.524322824,5.652343999,4.251686134,5.859284578,6.637548443,7.546703611
8.876965171,10.75629896,2.9065293,3.353530062,4.052261616,3.689864442,3.840753884
7.050202099,6.821281132,5.570759897,5.013302857,4.636725429,4.401677773,5.33054161
7.592669332,12.9143044,18.09309389,22.80045116,26.61926814,29.63600832,20.36899885
5.1932446,9.902964069,26.87490278,22.76785201,23.89212128,29.13724937,18.69297382
6.865707701,5.655896304,4.100401742,6.337503737,7.145922589,4.012994474,5.385112906
8.697729465,6.0151646,3.954699259,4.054307893,4.675163393,6.014957825,3.818060892
6.367026618,61.43875643,207.2767914,317.2005978,347.312428,362.6348667,400.9731566
6.6730256,60.76327172,203.4446094,307.2733177,326.7643094,368.1325826,362.4129583
6.623591058,195.6007272,745.7447641,933.1082441,887.5567695,1057.946846,1281.004119
6.674850204,195.2148206,731.727158,1098.81557,1288.924916,970.8149477,1429.753956
6.617509429,6.613392425,5.200842765,6.842871496,8.842719418,5.829625563,4.842867502
5.855610764,6.663882963,5.398169445,4.548636158,5.103346717,6.239732561,5.247340698
7.342473976,7.263875615,7.425696283,6.507436056,6.670991457,8.015388049,3.247193375
7.790998342,5.38197061,5.410876133,6.214682529,4.929822637,5.559287342,7.062917332
7.130725643,46.28156725,158.4581851,276.7376916,306.1386141,251.4617298,308.2487196
7.853216972,43.26348268,197.1863236,231.8844845,316.901572,218.7405046,284.7648707
5.57831395,6.373447473,12.39225745,10.36633954,11.67146346,14.45398042,10.0250757
6.161746923,9.495986171,8.525054332,17.12585821,13.62359334,14.33367713,12.31463684
7.309955461,162.1525941,807.8943176,1244.654618,690.7663263,1437.967359,1904.383065
7.276349103,208.7710924,871.837793,1268.898957,1104.631199,1861.858369,2376.20149
8.206857115,311.2900359,1474.28753,1945.554974,2340.886656,2483.144804,2810.801845
6.818934206,381.6446856,1153.364926,2099.184803,2242.522577,2712.937765,2527.489693
4.153612627,5.390606534,7.540566855,3.332488069,15.9079349,1.494240619,13.85100552
4.154095062,7.866763212,7.335887108,6.147776145,12.63266943,,2.354708519
8.708272406,10.84782875,4.736751381,2.398169998,6.288751173,1.129075885,3.374540151
4.094334284,5.491494061,7.268338939,4.687491436,13.37828603,0.961293428,7.754741239
5.772265189,7.311364384,7.664293763,0.341909655,5.424583617,45.81750631,15.12712208
3.679603952,6.824857565,16.85624034,6.009745729,7.53877771,26.56725241,38.68836669
0.0,7.059019268,5.590430539,2.899672022,0.604395369,1.333559844,3.617589813
1.108634907,6.00967866,4.684570214,16.26452769,0.0,1.781664767,4.657720237
5.491377064,7.650917791,27.50128208,18.65815937,96.60406283,9.694962166,35.31525253
6.80375005,27.88340302,39.17522934,29.89541962,137.9488357,8.156792413,131.4558622
5.220863164,2.686774124,12.01392237,,35.14861584,1.368197222,4.047900596
6.392763168,5.045523482,27.06438592,1.108176346,38.57288911,0.0,2.560628474
2.558745753,2.823404662,4.866664916,3.653079194,3.090555897,1.343133964,0.873318523
3.084451975,4.60340094,1.871313338,2.320435254,1.741913332,2.860866992,2.828208452
3.666255997,1.956745537,2.137364293,2.624864263,2.700250831,3.302984605,0.573551746
2.793155509,1.617521315,4.129852184,3.006912426,1.708147177,2.702789829,2.288927703
4.254633653,9.44097027,45.13672482,58.91187467,73.20687616,60.15654807,72.29883458
2.542957328,10.98613967,43.81370406,56.10053998,78.12085858,70.73745843,74.14930075
4.662925173,3.72827266,4.930461883,5.312732972,3.059142317,2.918057501,4.919064826
3.267724861,3.42134468,2.659212813,4.446469088,3.80647426,3.68374566,3.926046866
1.432137128,69.43900736,234.6952682,301.313652,363.3750748,297.8210412,367.5231068
2.512567701,66.78117451,195.1691215,304.0751101,342.0550497,315.0528795,348.581835
4.377120796,96.19242116,317.4039738,442.5902585,499.0116212,375.8141902,598.3460952
4.98923345,100.1412032,306.486763,446.8020193,466.9994257,451.2505988,560.8928432
3.462132993,2.257381127,2.961444095,2.085055193,0.0,1.57804644,2.248100293
2.906643383,2.22320246,2.442921487,1.595116981,3.137060129,1.173849436,2.197396921
2.012862621,3.33465975,2.119552922,1.385483487,1.290609495,1.220225141,3.071887135
2.211168524,3.002419482,1.44186813,1.995309185,1.006271047,2.91397406,1.217634234
3.970207759,1.63881911,2.140715956,2.015693431,1.072247563,0.0,1.527661075
3.120752798,2.224919841,2.224309262,0.503213415,2.837908426,2.226878559,2.396723253
3.742848157,2.43362607,2.459867115,1.767169849,1.016022298,1.922066543,2.618945832
3.45674548,3.342587393,5.061737218,1.865805001,1.344814561,3.499042211,2.192808131
0.9854986,1.448125404,4.144611642,3.401055115,3.581141824,2.63157513,3.150292874
2.284818543,3.159225698,4.127470366,6.614185325,3.097829383,1.478154609,1.326193846
2.533077699,4.093240659,4.575718645,3.295449453,2.338072878,6.116754294,4.066244331
2.875071671,3.084516083,3.289569377,2.700150074,2.878869679,5.988432763,5.484897086
56.6019795,48.33170396,49.53143409,40.84481943,40.54557332,39.84424553,38.11251324
50.5601118,58.47648742,42.1400371,36.85392926,46.93747481,43.71602383,38.71788494
52.32529931,42.23042863,48.71042914,43.6568736,42.49373322,48.17775174,42.4538556
57.96560039,48.91221723,40.96172637,43.3644065,53.47283221,50.13891336,43.77063593
52.18154473,219.3793097,625.0445386,978.8087175,1115.820012,1402.536523,1469.052573
48.29743341,236.7606686,742.4701256,958.5037446,1216.1104,1322.524408,1312.69611
56.73082357,60.86772454,120.4321519,140.2796681,155.7091651,150.0314157,142.3759891
57.80006929,52.45968326,104.3890295,134.3213938,154.8932098,166.0123566,140.7005884
50.09770234,380.3129035,1177.341679,1855.548676,2412.241764,2717.023836,3342.803255
53.03520631,468.4394943,1170.257944,2184.116939,2652.965016,2839.70962,3138.422291
48.55561591,475.516657,1414.561243,2199.60134,2516.042004,2582.718187,2565.074722
47.93148747,457.2032471,1414.791006,1762.247381,2541.924231,3003.044626,2773.416245
13.19423995,22.6919014,23.12776586,16.82948459,14.15912738,11.43677255,11.42540365
19.80915166,16.82517536,15.26568707,17.30480635,16.18173871,11.98321472,11.71946798
18.68187211,20.76885212,15.14977834,15.15934508,19.60551721,19.02733447,15.08596799
15.41844079,19.19145969,16.35814521,16.60234729,13.13308815,14.92141565,11.78542194
21.19612402,46.87525361,141.6995279,209.4997435,248.7260051,287.3937736,259.8334918
18.9711456,53.07692609,130.5678725,220.7634903,240.9620435,281.5914256,249.2855437
20.20609792,16.94485576,27.09009653,30.06922708,37.64299601,35.71119459,39.15381887
20.34048888,22.01594796,36.40241864,30.84836247,41.92123729,36.81347226,42.5130527
16.87675926,94.31886476,272.2563799,324.6751319,404.8521066,410.1460209,505.7579714
17.15455174,89.93162676,265.1777827,341.8285695,366.6409156,429.009195,564.4956948
15.787918,117.0355142,289.9336557,347.1989684,359.9791581,503.0840431,579.4370757
18.04824019,112.1969701,301.7191082,376.7297207,428.5539465,639.0983394,547.6702871
6.220973736,7.435985467,5.309490517,3.572655708,4.92300245,7.880298791,5.346962864
5.563842149,6.19347322,6.356786252,3.932243116,5.394408393,6.918363193,5.96869739
7.033497348,5.648426757,6.513885778,5.023987437,4.920913898,5.125035105,6.491846354
5.297393871,5.970163452,1.997943899,3.657491581,6.854880418,5.25467428,6.47100257
5.832167853,3.738076591,4.436522587,5.09897335,3.001581146,4.835625569,3.83551737
5.092008681,6.528378083,6.742474044,3.089306022,3.692187868,3.911914167,4.625096081
5.633503117,5.162894859,2.790207955,5.395128443,6.879503578,5.609511917,5.418450322
6.063017466,4.724738889,1.433691212,3.981429822,2.716168995,3.979014185,4.672013875
5.187264502,7.918972633,4.861293515,3.585673166,5.966760751,5.497929642,4.540801452
6.587407387,2.989013995,6.105665996,5.595004305,4.062146083,4.97595695,5.347086448
5.410603825,6.588986939,11.17793553,8.983174816,13.33321623,15.80455933,10.30050069
6.400947377,7.592998303,11.24792509,13.8723756,12.98602518,13.44621145,12.95571556
8.079993289,6.448078345,4.839886594,4.3469918,5.80599743,6.708709508,4.280343892
10.33483614,8.191057209,5.149871685,4.536025874,5.880724325,6.437053553,5.339586891
7.24934196,6.350541444,5.662864806,3.5391203,2.551203492,6.327880232,2.541763584
8.410938707,6.543562266,5.938186714,4.01625077,3.863138004,3.102253017,2.283662747
7.192924124,11.883626,26.50930814,26.98410629,17.67334753,28.89373968,19.66566822
6.606270131,11.77769868,20.95029667,21.48021055,26.36899133,31.48481511,23.98353441
7.993621254,4.618652587,4.114520386,4.886059063,3.807209531,7.026591309,4.772304886
5.282242938,9.441136744,5.175952493,4.325842762,3.510611371,3.635868554,5.346483649
8.070136279,61.18464581,170.0884309,346.5331225,335.5612613,408.4641459,382.6361528
9.927247682,66.74857339,190.1080237,269.841387,312.8505273,390.1300544,361.4186282
5.294592747,185.0254749,725.9078237,797.7821367,1157.177169,1176.37509,1128.900799
5.99240347,229.499456,709.9007914,854.1648932,1119.000554,1465.071315,1188.88255
6.109748019,4.389898099,4.636093305,4.800044439,6.273692337,4.668945118,5.796393538
5.88965934,6.463653735,4.171548163,4.919596668,5.259854234,5.799212302,8.224180161
6.813525794,5.383640405,6.633474093,5.7704926,4.295634271,5.343185005,5.545562544
4.896512215,7.70320219,5.453373349,6.69250667,4.649586969,6.677279858,4.797540548
7.620755219,47.69711317,168.2998502,234.6541741,320.7726858,331.6035514,306.7658856
5.641419751,47.00149543,171.2443334,207.1079897,287.680394,216.1695574,306.9834848
6.403413619,7.145402762,10.79661204,9.399000387,11.54667474,11.70024538,13.54636496
7.210806105,6.841953556,13.75659832,13.08671062,12.29346827,12.0429425,17.30455711
6.858273441,225.8358304,817.7469983,1206.094846,625.752607,1560.694443,2108.226422
5.072442411,189.2575537,773.3669924,1128.067251,773.4571639,1809.075004,1960.136651
6.597176441,488.5134802,1056.803379,1625.46991,2515.109519,2771.121957,2553.910665
6.627824513,436.2488285,1189.265504,1919.568952,1882.617924,2554.463074,2438.824436
8.398319786,9.899576705,7.498575255,1.970853907,5.618517843,1.742175672,5.643222882
6.834213108,6.456903631,28.51548399,0.879314561,12.47105634,3.650236927,2.691813889
19.99519457,6.627532956,0.933472818,1.586126476,9.597724232,0.0,1.240807887
0.0,10.3401567,4.570287632,8.925494702,28.41215406,0.470999435,12.00032975
2.960359136,9.843911279,10.87401567,1.194424447,6.27865065,31.66682579,17.09937586
11.11096445,8.119236473,6.940569813,0.0,11.78037412,30.60123691,34.88944204
3.897297477,19.19669078,2.195334338,10.22777815,0.0,2.471917235,3.004689708
7.750268332,6.249650094,6.089182061,5.009287122,2.864716599,0.0,3.784864138
4.168077518,24.10906966,44.52270745,52.27468739,23.24649611,5.473560021,29.35339662
2.364127408,19.16568908,49.6862213,38.12350239,30.18852746,9.77438524,68.05438884
3.81893887,4.718526462,1.10872543,0.020779186,5.303816978,0.853771815,0.0
2.570864161,8.392910538,9.315427801,65.86090082,19.66764656,1.970447943,1.485370305
4.609815022,3.327477173,1.320022248,1.371755499,2.323117151,2.325297453,2.367348638
3.224204122,2.412317648,3.327265036,5.663930774,1.666131547,2.596248446,2.82646572
3.040228823,2.595314656,2.339821714,1.915268545,1.550133467,0.249126889,3.71148221
3.831008729,3.851525047,2.579100995,2.187237688,2.871397426,0.661081951,3.545643228
3.438848999,9.250281867,31.4586287,40.88793438,71.72992059,71.24240421,65.13370854
2.947018104,14.22771223,38.93964243,52.97867224,74.11697452,67.03144644,67.75383978
2.475911217,4.083371035,1.861819764,5.756459929,5.318842088,6.341501426,3.749196535
3.575031674,3.072432514,4.156645481,6.6033834,3.50642482,5.475364509,4.349799034
5.518817243,62.19322462,202.1013653,230.0325787,328.2378148,322.1516328,394.30112
3.176743591,69.02613338,185.1388603,297.4806505,352.6643394,347.1145453,397.5962858
3.046036837,96.29684763,287.8356314,423.0347659,517.3930001,411.3871111,600.9229789
4.325143177,89.92190637,327.3480937,409.7272717,506.7409321,562.6378582,567.6843332
3.654019416,1.750981494,2.969389355,1.092226079,2.974305706,1.845769406,2.304425678
2.001179229,2.425928458,0.968880067,2.456766121,2.504378139,1.794766576,2.624092647
3.503210175,2.361921634,2.037531251,1.119131682,2.695765468,2.368412993,2.05188
3.956382659,1.352748684,1.569807755,2.224289667,1.560894756,1.831968841,1.873006372
4.120826341,3.317262876,5.700066001,1.71198045,2.832876809,3.1765175,1.500891905
2.872682405,1.221168019,1.97227762,2.450432187,2.426794138,4.301761578,0.749726812
2.948006767,2.17258197,2.803890734,1.47416935,2.145594702,1.868424943,0.744431545
1.716754604,2.120086851,0.851027322,1.281217182,1.004646439,1.404991007,2.779380138
2.616757728,4.378809079,5.564380156,2.088076935,1.522353046,3.625175178,2.007515896
4.054155929,2.998072881,3.454816276,3.78288563,3.305763332,2.587947283,2.390594594
2.471658922,4.618076811,3.101582824,3.48022428,3.798393957,4.214192344,6.396600771
3.462226642,3.595567877,5.881920928,7.037404764,4.366447297,5.290378896,5.176116588
