0.0,1.0,2.25,3.3,4.3,5.6,6.9
18.76510062,16.44718742,15.98702178,10.75039417,12.00054648,17.48017353,10.19953363
19.59641548,19.45520368,14.2309459,14.5299355,11.86524424,12.07915424,12.25625469
24.50587515,18.48667526,16.25628921,17.54367883,14.05215629,11.08484562,14.17804167
15.96497778,18.97017197,20.89390729,12.19681398,12.1642003,9.879401369,11.3855946
18.05628022,19.29687969,14.33265221,15.17558187,14.28074858,11.1579464,15.2630256
27.34886483,21.92286384,17.73989429,14.45843779,12.14725691,11.75622795,10.68993749
13.19423995,22.6919014,23.12776586,16.82948459,14.15912738,11.43677255,11.42540365
19.32706793,16.90364008,13.3808946,15.09167415,7.916387289,12.20339376,11.16617693
13.82893403,19.13371969,16.48998294,10.68751656,15.94648262,10.09477438,11.29558976
17.20451466,22.64769112,13.84383643,13.22424677,9.749598341,10.98570709,9.548762222
19.80915166,16.82517536,15.26568707,17.30480635,16.18173871,11.98321472,11.71946798
18.11388171,20.58389409,15.18766524,15.57289252,14.15630602,11.49664902,9.577959675
20.3547789,17.35373888,13.13749695,14.11855395,13.2124009,12.33813658,15.07200941
19.79420245,16.60411745,14.45652248,10.75947191,7.80054296,14.61772322,10.37041978
19.4732813,17.77493451,14.16762339,12.97377564,16.25007178,10.48279454,12.34394329
20.20489909,18.36254385,14.34528686,15.79287581,8.396438173,9.679903488,11.46255214
18.49711679,18.69881338,14.16702403,16.74023617,16.58365599,12.76486514,15.94509116
17.45168828,18.6795116,13.99210219,10.6733564,13.73792919,15.95956461,12.23158387
17.47440482,15.54672926,14.51715878,12.61105602,13.69536899,11.80956894,15.42864015
21.70577973,17.14705707,17.4749108,15.62278303,16.60560486,15.91331175,17.12370871
16.46738641,22.4982428,16.84942907,13.83143014,14.84749185,12.66306751,16.43508998
18.77697237,13.71410545,13.01103739,16.3392012,12.23416777,15.36892339,11.49754056
20.933136,21.22170305,16.52185129,14.82854828,15.22040311,13.45030793,16.3631243
15.41844079,19.19145969,16.35814521,16.60234729,13.13308815,14.92141565,11.78542194
17.89665361,20.3733135,20.07211531,13.14604094,17.78519671,15.78186594,14.98419115
17.35529427,17.46598053,16.08374072,14.74787821,13.99741961,13.31926429,10.88711964
17.58844697,17.41680128,14.63585596,16.38700326,14.99917285,21.00579998,13.81537528
15.62529394,17.80658461,23.73967254,19.02684512,14.33975934,14.76789607,15.69880104
21.96566626,17.84406739,19.62518507,17.19551492,12.28286037,20.55622994,13.393606
24.47013686,22.67656341,19.97460866,14.42478628,12.61598655,15.97278514,15.36029049
19.40441632,16.83927004,18.70900322,18.29516746,13.38252783,13.40860567,15.7006895
20.06044549,18.88418768,17.56284494,15.94191219,15.43675922,14.96215956,11.10906216
18.12503087,15.14533599,16.57618037,13.39092706,11.92804055,17.94717939,15.14105874
20.48886803,16.9620467,19.50728749,16.42838711,13.30299328,14.79349917,11.53497477
17.2915481,17.20934814,16.02377241,11.3614654,14.84254957,13.66481421,11.95346093
14.39779765,24.90961455,13.69090413,19.77967899,17.24104397,11.68811652,14.16713018
18.68187211,20.76885212,15.14977834,15.15934508,19.60551721,19.02733447,15.08596799
18.96014511,16.44965717,15.52599316,16.89055062,12.649487,16.30383259,11.02955098
21.19612402,46.87525361,141.6995279,209.4997435,248.7260051,287.3937736,259.8334918
13.90498663,44.79715843,165.567873,199.0387773,242.8666786,269.4126433,286.7735281
17.12976689,45.28996672,160.3301742,202.3862822,257.0691302,284.2864139,292.8019345
21.6817091,41.48847856,144.2212892,218.9662742,233.1958149,231.4814548,257.706543
25.12372625,41.35458825,131.4916072,230.0009576,247.7124712,276.3227802,259.8833724
17.18744383,42.88051905,166.2553473,204.3466853,223.757008,269.0257407,283.1329241
18.9711456,53.07692609,130.5678725,220.7634903,240.9620435,281.5914256,249.2855437
17.57119011,41.95189157,140.3556974,215.7333463,238.7886224,266.5883592,257.9071642
16.81283546,44.79036663,132.0780744,202.9009701,248.9767395,287.3693428,254.8888668
15.34439905,40.65902099,143.8385502,216.5387754,270.3814502,285.1377766,241.9026203
19.6263802,39.47318595,159.2026501,202.914665,231.9164867,279.1794226,293.2566631
16.64366527,47.90254647,154.5534337,196.7541021,238.582617,263.1457318,267.596724
20.23273739,45.12678396,134.2959222,205.8653599,305.2994289,213.5900004,280.4729975
15.50808698,45.89266119,153.7067993,232.0482523,220.5939654,269.9671858,261.4406183
17.21906511,43.20220137,145.6775663,184.6628681,261.2516592,277.0581429,287.156876
19.37825917,43.22278937,151.7127433,208.3185631,242.6055804,282.1844612,271.3288418
16.22636204,50.67412924,149.2913434,209.3739894,266.4080762,280.3253231,237.5409972
16.50229128,48.50916366,148.5682164,193.17155,256.6500974,246.5137515,320.3024234
21.56430624,44.94181661,132.4500197,209.5518804,252.9123475,280.4219642,232.5386856
20.40727371,17.57617762,29.36279727,34.92368409,35.27411656,42.23075051,38.16931927
21.46085208,22.47588023,32.57250972,36.96168325,32.63395567,35.52979041,37.61782601
14.98521138,22.95514505,31.37978992,35.21099634,39.75593969,38.33697169,33.55725574
16.42790106,22.16880836,32.80156914,35.05585588,38.78937915,33.27319371,34.00502444
17.10911122,19.3936914,33.08613372,39.1886164,48.54245087,31.98535057,37.59946205
18.77982967,19.48392732,30.13881613,32.87179535,32.59497327,40.40209231,38.37288713
19.74736588,21.80032639,30.43379886,26.43045815,35.67207835,36.85366469,41.35933903
20.05864831,19.36000853,27.86357581,35.20619376,35.37279436,43.82881261,36.97192597
20.38334782,18.21802397,29.57414846,30.79100675,40.32533174,38.4486093,32.98461364
20.20609792,16.94485576,27.09009653,30.06922708,37.64299601,35.71119459,39.15381887
16.56067114,26.2010845,27.1466067,33.88943488,32.65207057,41.34318039,37.51747701
17.81595133,21.97964719,32.73562956,33.68620906,33.10194714,38.95283696,43.15205331
15.02242535,23.8541052,31.0835313,35.17331842,39.01748947,35.55531385,32.90282662
17.32942927,20.81657657,28.27720342,30.01565142,41.16876782,37.29805611,32.59625256
20.29215376,25.32015115,31.5631045,36.32907188,33.28484033,37.70744169,36.49255768
21.53555838,21.07352468,28.92069935,38.85622569,38.09228312,35.1454596,36.11991131
21.54666638,19.69075273,31.46675848,39.88441033,33.99883883,34.19067259,31.97225231
20.34048888,22.01594796,36.40241864,30.84836247,41.92123729,36.81347226,42.5130527
21.10143263,19.00314418,25.95355134,34.45533374,39.59961556,38.80184993,37.76348098
23.27497244,87.60172797,247.1865183,368.8013465,367.0464287,405.9999944,442.9720796
18.52460074,98.06160371,294.3109186,333.5126888,422.3252428,415.3517043,490.9640686
16.87675926,94.31886476,272.2563799,324.6751319,404.8521066,410.1460209,505.7579714
21.5936821,90.84066368,274.5409651,327.9033324,412.0257179,377.2143019,511.8526531
19.40486851,104.1036519,273.8498796,341.7946267,401.771042,420.7568595,516.6226787
21.45393265,87.04806398,290.6224877,347.8288831,433.8115173,414.9571948,460.8379445
15.22080229,86.28872525,276.6559978,335.7366431,393.2637928,383.1658833,476.3085618
13.18294207,92.31093838,262.071194,350.7136861,378.4794805,409.902637,457.5656152
16.22204644,77.18701122,236.3028362,331.3836404,450.6891455,432.9817584,496.6673259
20.64359494,96.82921762,277.2956518,370.2448986,376.9173179,412.0451725,517.3560195
17.87026373,94.01895037,274.8291237,362.9692347,394.3888578,406.1427886,438.6543651
17.15455174,89.93162676,265.1777827,341.8285695,366.6409156,429.009195,564.4956948
19.14421425,89.35258182,284.6944585,354.1692834,402.2392939,437.3066817,479.1457604
14.95959971,88.3805108,306.0836261,339.3935024,404.2951667,385.5171416,511.8329544
18.11037989,113.3492129,342.4547444,426.5130902,394.4383575,571.3978823,538.3394711
19.08580856,112.691331,242.864444,384.4060391,486.9482922,600.9027521,635.8392498
18.04824019,112.1969701,301.7191082,376.7297207,428.5539465,639.0983394,547.6702871
18.14155916,102.1925726,337.8184987,337.209582,425.7031893,554.8127264,560.8446356
20.72390922,107.7407501,338.3338451,341.0047795,492.0501,631.167322,654.9264584
17.18605122,91.41496113,293.7737402,399.9147969,552.229082,481.2995564,626.163884
17.70474276,122.6765326,291.2221421,451.1008919,453.3263005,515.3432027,532.819187
18.84599291,114.6874861,268.730651,372.0775247,506.8090144,538.5627666,502.1471444
20.69462473,119.8387839,346.1620271,387.7222083,393.3483018,512.9666322,557.5747037
19.85988106,100.9430641,337.7247845,427.3414995,402.893487,654.6892742,584.3298394
24.92579183,106.0472052,325.8290619,392.1852762,506.6648435,529.1413367,610.0626074
15.787918,117.0355142,289.9336557,347.1989684,359.9791581,503.0840431,579.4370757
20.12448952,128.2376518,300.2685145,363.70867,465.6339389,507.1087702,535.6282625
19.0826906,119.8341909,289.307787,378.7039514,484.4638354,568.1157113,521.707927
19.7710488,123.853572,271.7490008,415.0233928,475.9859645,661.5110285,623.5086592
16.30410851,111.8053102,332.3418827,331.8501347,573.7643918,607.0162741,647.5178068
18.21190933,114.9736445,277.326976,375.3078846,514.7548825,651.1979626,502.4946989
6.834213108,6.456903631,28.51548399,0.879314561,12.47105634,3.650236927,2.691813889
8.158545128,8.219487567,8.265817037,4.336254685,22.04674277,14.03345576,7.096231115
6.800110294,6.30709845,4.172868162,4.916201693,14.24281486,3.212659296,6.746246834
2.009253103,12.49725393,6.005007686,1.306334546,5.40193671,2.329094441,9.597821131
2.757701022,4.5840083,13.17327296,0.0,3.857727385,10.75172472,0.0
1.960426494,13.35369849,9.161624931,4.255538741,3.904576038,0.017687159,4.054452689
9.309431344,4.386028338,5.844851115,3.405744541,5.88169288,9.640802322,1.769980662
4.153612627,5.390606534,7.540566855,3.332488069,15.9079349,1.494240619,13.85100552
3.932721444,8.757117287,6.528307693,6.299745733,6.087274599,6.929839669,10.42189358
3.749318487,4.659392539,9.399701439,6.479867029,4.258739834,5.872636036,2.251589019
4.48975425,9.911637659,8.252389955,0.810041243,8.293809328,13.47351422,0.313393324
7.036131603,5.516512726,4.768827448,2.95708033,10.41394181,6.878978239,2.557453037
8.398319786,9.899576705,7.498575255,1.970853907,5.618517843,1.742175672,5.643222882
5.841704922,7.039848543,1.884964128,7.989952036,4.865234711,3.675823802,4.75049058
2.102399974,10.93066537,3.230803469,2.227640582,4.402775602,3.421319926,1.872618843
4.154095062,7.866763212,7.335887108,6.147776145,12.63266943,,2.354708519
0.887036369,5.381824758,9.537545421,9.572570665,3.182567938,2.711691489,0.772340638
0.0,3.918860285,3.895019977,3.875994408,4.133975917,1.800242714,14.22100593
6.348625728,10.1545241,3.955263556,9.369309858,5.821045375,5.483722948,3.124764005
3.074814243,6.739109311,4.114810066,8.574948761,15.3616319,2.039425769,49.7937046
5.618767521,3.763014777,12.52998802,3.440250905,15.23628869,0.0,5.864037915
4.32086304,22.569838,4.457807317,8.669511623,9.420638353,1.181221757,0.513480137
4.170872207,9.711501339,7.383066882,5.845933372,7.64246953,6.851300477,13.56060086
8.708272406,10.84782875,4.736751381,2.398169998,6.288751173,1.129075885,3.374540151
12.79869046,10.5054489,7.957165918,6.43725976,0.147315774,1.347930329,2.687486134
1.95273287,8.221181404,9.265756518,2.923606523,6.706091988,2.554964652,2.804310536
6.679420109,17.10657434,4.361224659,7.850892185,8.441822254,2.258363797,6.285476966
3.71240761,3.812676252,1.620709804,1.528900334,2.97112956,4.194700256,3.109610624
0.44061679,10.86880619,10.02668914,7.834398944,5.352840887,0.0,6.689812074
10.7033843,5.193883706,2.795875367,9.071265043,5.717205833,2.315961457,4.731569169
0.0,10.3401567,4.570287632,8.925494702,28.41215406,0.470999435,12.00032975
1.534366197,9.39010244,7.762573226,8.598767439,3.118228647,1.385745115,5.156103091
19.99519457,6.627532956,0.933472818,1.586126476,9.597724232,0.0,1.240807887
10.08009686,5.858035102,5.000806578,4.798499846,4.941514584,3.532793675,1.23733668
0.809097175,5.293981122,9.297628988,2.043351368,7.187033463,27.63801472,47.62282139
1.772035349,6.789005541,12.43885489,1.286998713,15.67193261,17.86855808,47.99319961
7.423985153,18.67911899,7.214921441,0.284728783,2.858381072,38.95136178,66.28496519
4.319184624,6.874203634,11.45501798,1.398356793,4.944459183,72.36147974,53.79161139
5.772265189,7.311364384,7.664293763,0.341909655,5.424583617,45.81750631,15.12712208
1.410056603,5.927815594,4.433605457,1.248706669,3.728087278,46.86306767,48.63266036
7.124686954,8.682974035,9.377644832,3.204316783,14.6979596,10.14881039,53.59714858
0.0,8.15322339,0.512240671,1.886568536,15.14147123,32.84084706,55.66524305
8.413293049,8.558289341,3.778024767,2.156765516,4.12116715,65.98953189,41.06250431
5.835818533,7.792937871,7.948994019,3.062861836,9.023486499,45.8535138,17.64188259
0.0,8.968091132,9.597623299,3.082772273,5.022280849,33.63842142,81.07067875
3.679603952,6.824857565,16.85624034,6.009745729,7.53877771,26.56725241,38.68836669
3.623733088,6.583401764,14.31617254,0.671453693,12.17956387,13.00317178,58.01121602
1.511865945,14.85748791,5.055003968,2.489823781,2.100719148,64.20274022,31.16536068
11.11096445,8.119236473,6.940569813,0.0,11.78037412,30.60123691,34.88944204
5.474440412,5.167258554,15.75494695,2.399200288,7.533609574,51.09839789,34.5224691
3.591165549,4.67842753,13.48571833,2.867681071,12.26940349,17.57508382,26.5892471
5.800703365,5.4819502,6.56946055,1.440503346,12.34862968,12.42408294,18.45774378
6.944755012,5.631026545,7.86103977,6.030016128,1.143124511,6.331176782,5.948229632
0.962686302,5.721569464,2.307715893,2.110441215,0.265007084,1.009482705,1.386045651
0.467822488,4.764822133,2.055085387,3.70772363,0.0,0.996936892,0.0
6.295262995,9.915549614,0.404082626,8.284035142,1.88336213,5.393515804,3.23086138
1.108634907,6.00967866,4.684570214,16.26452769,0.0,1.781664767,4.657720237
4.211549832,11.48215466,4.644496726,2.13891124,1.978378046,0.0,2.997560222
6.301178369,8.199714921,3.440162078,3.833395411,0.286817586,3.158169219,0.394257908
9.258017779,7.368403423,3.17477472,13.05386693,0.144791534,4.444312727,2.126802857
4.943430556,9.907499404,5.755509638,11.67912159,2.353047467,4.316177918,0.0
4.511900354,11.48648084,0.260252357,7.145326281,1.435622002,5.413414074,4.534557905
0.0,7.059019268,5.590430539,2.899672022,0.604395369,1.333559844,3.617589813
2.037623041,5.443388947,2.766465948,5.741512401,0.871888075,0.0,2.447234286
3.001384506,8.366252808,3.331062668,15.09898368,1.015051678,0.049892311,8.004818307
4.17961036,10.15319823,6.219371742,7.242331964,1.132359199,13.24542916,0.349034328
4.176138482,6.669851436,8.707321337,3.962174058,0.856069501,5.040961958,3.966293867
2.525085968,9.789378058,2.982332716,4.410390096,0.636504976,5.720858292,3.073746638
6.47536609,6.785484247,2.741599759,6.871639879,2.115486772,7.624543533,2.508902529
7.750268332,6.249650094,6.089182061,5.009287122,2.864716599,0.0,3.784864138
12.59190242,20.47200542,65.31514257,31.08202433,243.1467369,21.85506786,45.8023752
2.861254524,11.39453121,25.39327995,27.09980363,29.79219696,8.092347495,19.70134469
5.489764027,16.01228868,31.28765675,25.87600852,32.38150264,23.23361508,30.80824314
3.178179748,17.11609383,41.41072251,83.49659323,20.36463545,6.7936953,6.247040043
2.68333613,12.59966991,10.59110741,44.26257094,100.4976908,3.644266514,25.46204771
1.087154177,22.20875751,14.97202211,6.291725802,92.41774042,22.9409956,212.4014276
0.0,23.12510765,11.39993722,17.97331807,5.553416914,14.83496609,24.29613089
5.491377064,7.650917791,27.50128208,18.65815937,96.60406283,9.694962166,35.31525253
11.62648671,20.2248057,25.69486569,15.27332024,19.64015524,10.98858012,171.3415819
4.389307534,9.678333701,27.0460586,79.26187675,48.17949293,3.910820908,32.17207895
5.67445394,14.49587295,42.45384212,94.18816875,62.90262842,31.42830809,23.03069053
4.168077518,24.10906966,44.52270745,52.27468739,23.24649611,5.473560021,29.35339662
4.690876368,4.709575507,50.88933557,90.87838684,31.23160106,4.252546838,38.04974576
11.9183964,29.63512992,38.5735771,26.31544311,259.7418452,2.268891481,229.6992257
20.67620238,18.13059697,12.23165775,70.34514208,266.5069376,70.44291133,16.65038792
3.811055708,36.17834969,24.48907214,78.59999595,50.19188251,23.80095043,13.99681286
2.364127408,19.16568908,49.6862213,38.12350239,30.18852746,9.77438524,68.05438884
8.243728023,3.841827493,25.45529042,9.828625129,43.0483778,11.05359842,131.1055665
2.570864161,8.392910538,9.315427801,65.86090082,19.66764656,1.970447943,1.485370305
6.828559216,5.667424859,1.212502095,0.0,5.272271328,2.26284242,0.0
1.223406279,8.635759534,3.272837522,15.26609998,1.954384381,1.639417977,0.683266345
6.392763168,5.045523482,27.06438592,1.108176346,38.57288911,0.0,2.560628474
4.350250318,6.101735745,6.018481108,4.515446325,1.959287618,0.03928302,0.316341986
7.562579444,4.74522743,0.90081032,32.24146781,38.67441744,5.340924128,0.0
4.373508841,7.612538915,4.624079147,9.00431542,5.386326839,4.352716801,0.0
5.220863164,2.686774124,12.01392237,,35.14861584,1.368197222,4.047900596
9.12819342,6.219479745,8.937514124,12.43274588,4.689431186,1.7262231,5.885462018
0.234095756,5.170082,5.918383593,21.56103333,8.768086782,1.197831204,0.551491568
2.128605457,4.360499191,5.609935814,4.03233178,,0.889956095,0.98695802
3.81893887,4.718526462,1.10872543,0.020779186,5.303816978,0.853771815,0.0
3.049635081,5.636322198,4.379749315,51.64966674,1.302717861,0.957524842,6.723755507
5.416986349,7.268493577,7.812253246,53.15423445,17.645544,1.302959539,0.0
8.017485652,12.06926169,1.407168907,11.7964186,7.91922253,1.56994793,1.872866786
2.168341913,11.51113581,3.58821456,4.424857557,7.91922253,3.417521712,2.047459522
7.122419915,8.273407909,5.342234382,13.32394908,18.82679497,0.57251203,1.224454572
4.355273046,9.419082091,2.062985541,0.0,7.91922253,0.697178594,0.0
0.501536756,10.77351582,4.374769887,15.79335825,2.97592189,2.691704504,0.535994875
6.607957051,5.3488383,6.369462998,,9.722907808,1.221015955,0.135031765
2.558745753,2.823404662,4.866664916,3.653079194,3.090555897,1.343133964,0.873318523
3.59802139,1.206461468,2.801845577,1.250175993,4.011689165,1.610162729,2.227818542
4.835763239,2.417903603,1.54641469,1.578247108,1.806800876,2.841273539,1.098434316
3.815760964,2.778479232,2.565006066,3.950674987,3.815553365,2.552758967,1.782473464
2.264022395,3.50784822,0.375897312,2.242185436,2.868140997,3.011874159,3.490685386
3.224204122,2.412317648,3.327265036,5.663930774,1.666131547,2.596248446,2.82646572
2.819628549,2.234749999,3.760306274,2.682539053,2.428730058,2.009909091,2.084519565
3.5781808,2.951645803,2.563294697,3.295271241,2.383863251,2.286554861,3.367307162
3.084451975,4.60340094,1.871313338,2.320435254,1.741913332,2.860866992,2.828208452
2.460094781,3.050006213,2.824715484,2.464873524,2.535813572,0.787251489,1.790203049
4.164863584,2.499248427,2.890264838,1.119962247,3.573036525,2.802322653,1.4072768
4.609815022,3.327477173,1.320022248,1.371755499,2.323117151,2.325297453,2.367348638
2.07020275,3.000364814,3.3259716,3.981758482,2.965512027,3.295586367,2.914518038
3.554951772,3.577376003,2.314515258,2.031655408,2.490432779,3.86055745,1.862195486
5.076092063,1.958757153,1.898166156,1.969049945,3.386834642,2.167683727,2.858446282
3.478260218,4.328245514,2.006123046,1.124567827,1.588731754,1.506124773,4.355112629
4.112525596,2.290265698,3.749913561,1.694449534,1.388441046,1.800800843,1.968310573
2.275726098,3.036867397,2.001990953,3.047131261,2.03939508,1.948630203,1.261110891
3.174338604,2.499043284,3.335471631,1.466507569,3.080435396,2.658259889,1.509452719
2.504744457,1.731942265,1.364460697,3.865687294,2.12955048,2.461182153,2.768200347
2.475366629,2.965629446,1.245220092,4.472425807,3.451043182,2.281621894,2.927034508
2.155966667,3.008561241,2.35428125,2.430517245,4.254523775,2.387101107,2.141858302
0.988457004,2.346549922,2.431961982,3.751813651,1.24254446,3.426578022,2.732492068
3.983191809,3.332936307,1.487159169,1.598681565,2.790896455,1.492548972,3.131126644
3.831008729,3.851525047,2.579100995,2.187237688,2.871397426,0.661081951,3.545643228
4.103602911,2.963680734,2.831872825,1.073186402,1.712093779,3.097650597,1.151179727
3.25086354,1.932129165,2.333267512,2.430587311,1.961177602,1.795321509,1.695295766
3.040228823,2.595314656,2.339821714,1.915268545,1.550133467,0.249126889,3.71148221
3.273339518,3.311655356,1.746118682,2.079253618,3.79005053,0.833480189,1.943203037
2.94313825,4.10864347,3.904959863,1.483095245,1.11272927,2.228249223,2.731523017
3.903166421,4.241531076,2.393163966,0.440927731,5.822593958,1.190646485,2.239292911
3.283296625,4.237932576,3.904061629,1.570462347,3.179513572,3.050850492,3.335361605
3.057019705,3.949194679,1.216552627,0.731083749,1.727960609,1.667019972,2.089102749
2.935724374,5.248106946,3.531487504,4.31368449,3.32096492,4.019204147,2.532187281
3.843071508,3.310284665,2.095605,3.227397541,2.611786395,5.67032314,3.134720224
4.852495404,2.825407115,2.699021779,1.808687195,2.010166182,1.730835462,2.553391284
2.793155509,1.617521315,4.129852184,3.006912426,1.708147177,2.702789829,2.288927703
3.941535682,12.22864212,37.67764904,48.90894742,63.61059515,79.43604342,73.99656827
3.500010352,13.09724442,34.32161973,64.74392503,79.57657586,72.07370825,69.20828004
4.254633653,9.44097027,45.13672482,58.91187467,73.20687616,60.15654807,72.29883458
3.792128598,15.68296657,31.0934791,50.9362537,67.02552594,59.10434724,60.03414057
2.81879799,11.41935021,36.45505519,46.16577598,75.49484245,68.88538378,66.89102487
4.515700804,9.588050222,38.14531161,59.46761998,79.27874051,65.37453386,72.38841756
3.406517295,10.45346288,52.58638512,59.43242577,65.42711732,89.36976244,70.71770724
3.161917641,10.56856091,41.93751181,64.67218126,64.90052112,69.13499483,83.04589003
2.947018104,14.22771223,38.93964243,52.97867224,74.11697452,67.03144644,67.75383978
5.045968484,11.98144315,45.47130207,64.83150369,68.16767594,70.23971558,79.70190157
3.096349242,12.25080013,55.49091915,57.88134348,67.64511898,77.01725264,75.53851831
3.279702706,7.725900882,48.6410984,53.43963017,71.565797,66.73898305,70.00345067
2.013233715,12.73671238,50.68795129,48.59497203,71.36304631,56.2437136,68.67238453
3.534689409,11.8194216,48.2421789,51.45591527,60.61266222,70.97611218,65.7359512
3.474658354,10.60406198,35.48875398,53.31179813,70.92178991,81.8874262,73.00448286
5.746191245,8.293576288,41.39388052,63.56102447,70.83923644,70.65765816,75.45164898
2.542957328,10.98613967,43.81370406,56.10053998,78.12085858,70.73745843,74.14930075
3.946101901,3.778819659,4.571880669,3.747649572,2.505202179,6.101808794,2.402031412
4.863789873,3.37864849,3.027386746,5.056451186,4.500373452,4.52936487,4.942974407
2.475911217,4.083371035,1.861819764,5.756459929,5.318842088,6.341501426,3.749196535
4.662925173,3.72827266,4.930461883,5.312732972,3.059142317,2.918057501,4.919064826
3.009477852,3.585828523,5.370123128,5.132770257,4.542701458,7.357499597,4.038560468
3.575031674,3.072432514,4.156645481,6.6033834,3.50642482,5.475364509,4.349799034
3.729837072,2.760294328,3.477677459,4.877754621,3.619715938,5.51716301,6.001573885
2.913151866,4.346198081,2.779717522,5.911316468,6.564769578,5.49675311,4.367913504
4.591386199,4.887351525,5.154434957,6.107528425,3.72161165,4.311953786,3.712972771
3.848357188,2.892498419,3.707722169,3.5229365,4.250297093,4.817723636,4.715894351
3.52500339,2.192802947,4.008457276,4.459644049,4.266784342,6.62301422,4.074158896
4.44972853,2.80726586,4.654234179,5.777946528,2.824025685,3.952419729,4.372407197
2.6180745,3.443311667,1.640235875,4.898722023,7.406156527,5.44081653,4.18477526
2.849337803,4.420244961,3.889149284,5.155247332,3.779129376,2.964402695,5.219740787
5.306600631,3.230465868,1.302685584,5.676349581,3.91936653,5.071229604,2.893828588
3.515434806,2.492521397,7.161709395,5.334704054,3.492776555,6.899975647,4.065782122
4.975446856,1.913696614,3.673339171,4.506595434,3.055278735,5.672614745,3.429382613
3.401726552,60.7083393,211.1710548,340.8590592,319.6258788,320.4531352,365.2881472
3.788108939,48.72319989,237.9826646,294.1002684,319.8790946,383.7465017,348.4099156
6.1453104,71.23806294,200.7033724,296.9130164,295.8343327,378.3844336,345.6807543
3.465666077,61.33192638,227.5855705,312.5138956,308.9273881,279.5956744,390.6597201
5.805966713,65.13043447,227.9742155,277.8215291,335.1733876,294.5689894,374.7632326
2.923894905,63.23375376,215.6238239,266.7255811,357.0453656,327.6999914,381.4074038
2.444727566,76.56194049,223.1118779,306.0262004,365.6593421,371.9691212,373.008736
2.694269584,65.09471204,207.2781754,312.0912843,339.6081073,304.763371,365.5492477
2.240771172,62.50547406,203.6632081,320.1275482,369.8288561,295.8884714,371.2742915
3.176743591,69.02613338,185.1388603,297.4806505,352.6643394,347.1145453,397.5962858
3.299002658,65.38595202,202.5554028,284.2437849,343.8156162,284.1287969,355.7505064
5.518817243,62.19322462,202.1013653,230.0325787,328.2378148,322.1516328,394.30112
1.432137128,69.43900736,234.6952682,301.313652,363.3750748,297.8210412,367.5231068
1.662599315,59.02854393,210.6229767,295.6102646,309.4671214,393.8803354,372.8896636
3.575915736,65.25731676,214.6181635,295.1709923,395.1552825,370.0150392,390.6159534
2.967971001,60.24625446,261.4625024,313.6774035,327.4670388,344.6809964,379.5773824
2.512567701,66.78117451,195.1691215,304.0751101,342.0550497,315.0528795,348.581835
5.415466221,62.12134725,219.3209249,291.8288359,386.5210471,336.5964631,351.2962801
2.8324462,65.31905224,199.4745341,278.2244229,328.5288786,293.039585,418.5687639
2.869683336,63.3749682,216.2938467,301.7767626,340.0979336,361.4846758,365.0674684
4.377120796,96.19242116,317.4039738,442.5902585,499.0116212,375.8141902,598.3460952
4.604812922,89.55600014,287.0125448,427.2755702,538.94635,506.5960376,542.5749433
3.046036837,96.29684763,287.8356314,423.0347659,517.3930001,411.3871111,600.9229789
4.755402994,117.2022275,317.0272875,404.7362998,438.2205136,400.8948424,557.6402063
4.276939927,97.38610754,306.0904578,450.995915,489.0573592,350.7808354,506.5501306
2.908428036,109.6846174,267.533511,389.2568944,437.3130051,417.8533,555.0803425
4.325143177,89.92190637,327.3480937,409.7272717,506.7409321,562.6378582,567.6843332
3.108265359,93.06667479,322.8353951,400.8740618,499.0599479,367.1455445,520.291689
1.717197789,91.36783041,311.4325532,415.7964025,522.156039,397.3634366,550.7786012
3.449339887,88.04090062,233.2175427,402.9928634,535.8377287,467.8673163,538.5721008
2.586498708,110.868312,293.4397518,395.8517025,459.7067505,311.545812,595.2091199
3.406661748,100.5728068,307.197867,388.1605589,499.9922786,361.8674702,576.9740822
3.667319235,94.75554356,264.3296769,437.8722798,525.0139315,378.670372,562.5980345
4.98923345,100.1412032,306.486763,446.8020193,466.9994257,451.2505988,560.8928432
4.999425394,83.66801538,277.9605365,472.2386251,583.5866297,331.6624901,489.6371441
4.347382184,94.83308765,333.2463867,348.4217934,450.3643458,366.6237309,609.9241328
5.273235516,88.03953331,309.2708782,416.3829955,511.7259236,429.4203402,566.1991672
3.57657335,3.236955159,3.13626287,1.527780264,2.138614699,0.368492997,2.804433758
3.462132993,2.257381127,2.961444095,2.085055193,0.0,1.57804644,2.248100293
1.007067873,1.266821381,2.120717724,2.120767932,2.281358539,3.026813738,1.388658152
1.587384406,1.811555227,1.854353077,1.660202139,1.445855148,1.920456424,1.534115139
2.27863805,3.373980437,2.068723928,2.196084016,2.926530911,0.93394945,2.552955725
2.9383923,3.361265483,2.278813636,1.122969737,2.991808401,2.278003101,1.138697303
2.695130404,2.581162334,1.906695837,3.748916306,2.734145269,2.778396907,2.831065598
2.001179229,2.425928458,0.968880067,2.456766121,2.504378139,1.794766576,2.624092647
4.317492908,3.229521927,0.892539523,1.141268331,1.288185618,0.664216729,1.088518722
1.944721239,1.068927751,0.873172601,1.512662841,2.509826708,2.540712948,0.0
1.865157216,3.215469188,2.312728574,1.048321916,3.210960739,2.284116065,1.616898706
4.379270093,1.910020142,2.928471737,0.730212295,2.004515051,1.377860159,1.700855898
3.12663828,2.509825586,2.504180739,2.320842381,2.364463649,0.98811157,2.292801408
2.848891362,2.305653124,3.036143875,3.264924984,1.56821364,1.688464257,1.997633177
2.992473282,0.878679622,1.684985469,0.89120152,1.600558233,1.324580205,2.560653965
2.906643383,2.22320246,2.442921487,1.595116981,3.137060129,1.173849436,2.197396921
4.072617411,2.899648775,2.801113305,2.305086421,2.155382876,2.372189278,1.322155831
3.654019416,1.750981494,2.969389355,1.092226079,2.974305706,1.845769406,2.304425678
3.67833944,2.935207165,1.601554392,1.000579912,2.174157347,1.915112286,3.263772396
2.740683802,3.172053151,3.050168656,1.239153303,1.373967811,1.795337729,3.844569798
2.797509566,2.305715237,1.564100427,0.20847108,1.544224303,3.021511653,2.691397758
2.012862621,3.33465975,2.119552922,1.385483487,1.290609495,1.220225141,3.071887135
3.956382659,1.352748684,1.569807755,2.224289667,1.560894756,1.831968841,1.873006372
3.300794744,2.635952542,3.092447616,2.961425025,2.374549185,1.371137592,1.49326769
2.51640637,1.812465666,1.147448395,3.825936531,1.364080621,2.178144643,0.725068858
2.810656363,1.003632845,0.906467779,1.892127833,1.475574386,2.01375077,4.073616874
2.883303406,1.026750926,1.647496477,0.0,0.35165435,2.811560312,3.101676476
2.211168524,3.002419482,1.44186813,1.995309185,1.006271047,2.91397406,1.217634234
2.882235902,1.445691503,1.595817603,1.047232857,0.691890555,0.806050388,1.782034297
4.192276098,1.317845708,0.918902978,0.834985287,2.496919522,2.636268199,0.77678081
3.600929761,2.13699969,2.440456862,1.534424431,3.498579882,1.910407427,1.952419354
1.99665146,1.41005207,3.427440604,4.055556907,2.42059478,1.735515288,1.184726291
3.503210175,2.361921634,2.037531251,1.119131682,2.695765468,2.368412993,2.05188
3.705709413,2.137441399,1.417426776,1.328782545,1.323434738,2.408663901,1.840854243
3.062473936,1.890422504,0.482850315,1.997756402,0.818334427,0.409281595,3.242519203
3.6833713,1.12010145,1.484662183,2.883777485,1.706383964,0.909070772,1.796964501
2.074563955,2.784107008,0.651457947,2.059128538,1.629480101,0.683771714,2.533476773
3.119285182,4.094986024,1.659820481,2.593557109,1.770363624,1.490580418,1.013673418
3.02237952,3.469462325,2.859382838,3.006649513,2.024320286,1.127196874,2.025951091
2.93153439,2.734819217,1.754277645,3.058161369,1.599086727,1.122234311,1.645831862
2.872682405,1.221168019,1.97227762,2.450432187,2.426794138,4.301761578,0.749726812
1.04543849,2.47933768,3.286467628,1.72896634,2.9464921,1.969002533,2.717463595
2.920292898,2.614826644,2.182377624,2.11123419,2.361661996,1.833765075,1.06812551
3.225458765,3.160376359,1.412198425,1.437060284,1.59459687,2.646412604,1.089392712
2.911728946,4.085970695,2.417935904,2.864311495,1.140903315,2.042635264,1.651502467
4.305538339,2.431868129,2.786560677,2.753116958,1.720241723,1.691992458,1.702060986
3.107390573,2.840894213,1.592910264,2.288283169,1.135292323,2.633288744,3.145590602
2.072599396,2.204504428,2.289974554,2.409638926,2.007882679,0.933692624,1.953433041
2.204799824,2.61327267,1.345514319,1.757072308,3.013105432,2.734468948,2.068624799
3.970207759,1.63881911,2.140715956,2.015693431,1.072247563,0.0,1.527661075
3.43376687,3.403214618,2.009302219,1.390100195,2.471657343,0.792728498,1.905379145
2.891993763,3.38077752,2.513213601,0.073426378,2.196395545,1.731833535,0.327953211
4.120826341,3.317262876,5.700066001,1.71198045,2.832876809,3.1765175,1.500891905
4.17019051,1.859219335,1.993677769,1.712726346,1.182367496,1.71840475,2.467190688
1.794188844,2.461457136,1.405591039,2.443697154,1.961025942,2.226087627,2.270240776
3.742848157,2.43362607,2.459867115,1.767169849,1.016022298,1.922066543,2.618945832
2.923612506,4.895150917,1.837369652,2.093381249,2.390885815,3.479866151,1.227478075
2.328052034,4.006409131,2.193801246,2.552688483,1.082983191,1.758902262,1.197577876
2.448828446,1.937809482,2.6926134,0.791382453,1.479854356,1.749206789,2.026847922
2.891585199,2.365599388,0.975577529,2.16429284,0.822388526,2.468207008,1.840420132
3.306926649,2.066914846,2.645180827,0.300257763,1.281193717,1.789086497,1.121274191
1.716754604,2.120086851,0.851027322,1.281217182,1.004646439,1.404991007,2.779380138
3.165611755,4.623801933,3.305696602,2.315086607,2.649590744,2.51172916,1.140987857
2.948006767,2.17258197,2.803890734,1.47416935,2.145594702,1.868424943,0.744431545
3.667153068,2.392631891,2.735904994,2.523181623,2.505614902,2.03084833,2.044338545
2.697344443,1.800146499,3.59088944,1.52478815,1.461245472,1.267834157,2.065538686
3.773985997,1.393522864,1.909861334,2.903525365,2.126266715,2.053582639,1.638274742
2.962364436,1.273782967,1.374352884,2.741793169,0.513225916,3.003673533,1.82550106
3.430289865,1.118939767,3.936626096,2.65305894,2.401797494,1.274836451,0.522362291
2.822635934,1.961557234,2.58764132,1.183235369,1.717116116,2.099303198,1.775960347
2.992115973,2.161959896,1.721139259,1.972240993,1.196853164,2.394504465,0.972643765
2.703170038,1.302981985,1.527751143,1.559329971,3.325087415,3.078229741,1.650765917
3.45674548,3.342587393,5.061737218,1.865805001,1.344814561,3.499042211,2.192808131
3.229374364,1.850140547,2.428832814,3.252363923,3.069383712,1.844923327,2.663788625
2.670352052,5.279652958,4.23276427,4.73778563,1.286655901,5.055332128,2.748516301
2.305286762,3.050240814,3.84120107,3.591812558,4.913702637,5.062150432,2.938554418
3.154185973,2.499059845,4.032804306,2.735265597,2.419579501,4.362814227,4.983961733
2.616757728,4.378809079,5.564380156,2.088076935,1.522353046,3.625175178,2.007515896
3.10991015,2.875204753,2.427203602,4.437381353,2.924899316,4.526876577,3.182185998
2.684210216,3.30742667,5.272887375,3.626014764,2.352609595,3.37724841,3.289359978
3.514690299,2.68968108,1.16966019,2.837332924,0.891990071,2.228588157,2.879974214
4.054155929,2.998072881,3.454816276,3.78288563,3.305763332,2.587947283,2.390594594
2.21654431,2.93176106,7.013069355,4.170606504,1.225720616,2.764791869,1.319047488
2.955244708,3.104417178,5.25683915,1.806460609,4.403183776,1.422746148,2.552147338
4.163615845,3.205860053,3.832569193,2.944640751,2.361712339,2.52219389,6.045515476
2.382239361,3.016870787,1.469418249,4.801482019,4.905172716,2.292821466,2.571187382
3.527169771,3.249691624,4.584457524,2.927722356,2.344424449,2.904495921,5.167895543
2.284818543,3.159225698,4.127470366,6.614185325,3.097829383,1.478154609,1.326193846
1.960212553,3.468558733,3.296054946,3.084439865,2.482770496,3.639348144,1.682472222
5.961484513,4.202198326,2.951779498,3.664504528,4.329689667,1.989017636,3.381027156
0.9854986,1.448125404,4.144611642,3.401055115,3.581141824,2.63157513,3.150292874
2.471658922,4.618076811,3.101582824,3.48022428,3.798393957,4.214192344,6.396600771
2.699397025,3.388791391,3.70421425,2.617516386,4.912731958,4.396800233,3.477817404
2.218460074,4.514406522,5.443068093,4.799267693,7.214679277,5.51267934,3.142019332
3.294448324,2.528788116,6.939425823,4.301100323,3.977730963,8.233428919,6.300450411
3.299479984,2.64342058,4.634158208,4.334603928,3.534790789,2.988270529,4.836517465
2.93940423,2.858986886,4.083659589,1.464638374,4.305674215,6.553911005,9.253576859
2.576548921,3.793346869,3.401381484,2.34864283,3.577301806,4.356961556,5.230600891
1.928793943,3.13102966,3.290735924,5.992446687,4.208927365,5.454129804,8.073137762
1.758292476,4.822040831,5.433934131,9.190011393,5.037167483,4.488438897,5.452733053
4.249403725,4.317382482,3.780835844,6.408417495,6.661862348,6.957122418,3.809315586
2.103676466,4.093215587,4.387398809,4.588032846,4.743330776,4.111498351,2.403059114
2.900926913,3.448848807,2.325175403,5.269296973,4.931014123,6.533343163,4.970481799
2.228962654,4.000603387,3.255228574,4.263979839,6.061478596,4.495700668,6.780059378
3.482429954,5.127038683,8.157510737,7.021311617,5.569062172,2.612799093,6.951388126
2.875071671,3.084516083,3.289569377,2.700150074,2.878869679,5.988432763,5.484897086
2.153737419,4.195336637,9.780616736,5.132919013,10.99025821,8.048400382,5.619040138
1.544838325,4.970668973,5.507134124,3.482621019,3.366267099,3.387040056,6.009892187
3.077037416,3.828302299,6.727337557,6.743783979,6.301387568,6.344839334,6.829681637
